 # time mean(w) mean(w**2)
  1.00000000E-03  1.00000000E+00  1.02697571E-03 -1.34814114E-09  4.03389104E+00  4.88298122E-05  4.88959235E-05  1.00000873E+00  1.31927652E-02  5.76146063E-03  2.24109863E+02  9.99993370E-01  1.00001093E+00
  2.00000000E-03  1.00000000E+00  2.05455516E-03 -2.41965512E-08  4.03388935E+00  4.92346349E-05  5.08839495E-05  1.00011044E+00  3.65172763E-02  2.06328369E-02  2.12377088E+02  9.99999948E-01  1.00010531E+00
  3.00000000E-03  1.00000000E+00  3.08618436E-03 -1.07352258E-07  4.03388194E+00  5.23799837E-05  5.39052052E-05  1.00035672E+00  6.38477229E-02  4.14225406E-02  2.01682164E+02  1.00005690E+00  1.00032281E+00
  4.00000000E-03  1.00000000E+00  4.12473088E-03 -2.81905614E-07  4.03386644E+00  5.96938940E-05  5.80052959E-05  1.00067723E+00  9.37155005E-02  6.48847699E-02  1.91643195E+02  1.00010697E+00  1.00058953E+00
  5.00000000E-03  1.00000000E+00  5.17190112E-03 -5.35898638E-07  4.03385672E+00  6.21634660E-05  6.31267037E-05  1.00109675E+00  1.22642463E-01  8.87449609E-02  1.81429843E+02  1.00021830E+00  1.00091557E+00
  6.00000000E-03  9.99999999E-01  6.22830498E-03 -8.52866305E-07  4.03385373E+00  5.81994837E-05  6.91572529E-05  1.00164370E+00  1.52736504E-01  1.12939341E-01  1.71454371E+02  1.00040753E+00  1.00131001E+00
  7.00000000E-03  9.99999999E-01  7.29402518E-03 -1.20715655E-06  4.03385618E+00  4.98803699E-05  7.58077520E-05  1.00231266E+00  1.82938520E-01  1.37644126E-01  1.61692855E+02  1.00067810E+00  1.00178314E+00
  8.00000000E-03  9.99999998E-01  8.36892493E-03 -1.60056305E-06  4.03385591E+00  4.53403818E-05  8.33143731E-05  1.00308906E+00  2.13697689E-01  1.62883778E-01  1.52317593E+02  1.00101525E+00  1.00233726E+00
  9.00000000E-03  9.99999997E-01  9.45268075E-03 -2.03472516E-06  4.03384799E+00  4.79495948E-05  9.22874105E-05  1.00394097E+00  2.44576681E-01  1.88706085E-01  1.43442597E+02  1.00140549E+00  1.00296253E+00
  1.00000000E-02  9.99999996E-01  1.05448344E-02 -2.51326020E-06  4.03383350E+00  5.67919704E-05  1.03120031E-04  1.00485155E+00  2.75171900E-01  2.14657900E-01  1.35120851E+02  1.00184415E+00  1.00365020E+00
  1.10000000E-02  9.99999994E-01  1.16448094E-02 -3.03747787E-06  4.03381961E+00  6.44080393E-05  1.15547371E-04  1.00579776E+00  3.05099454E-01  2.40058809E-01  1.27447628E+02  1.00233342E+00  1.00437870E+00
  1.20000000E-02  9.99999992E-01  1.27517940E-02 -3.58660085E-06  4.03380858E+00  6.78332288E-05  1.29357054E-04  1.00679108E+00  3.34364852E-01  2.63478821E-01  1.20342603E+02  1.00287612E+00  1.00516301E+00
  1.30000000E-02  9.99999990E-01  1.38648656E-02 -4.12805380E-06  4.03380384E+00  6.75875672E-05  1.44403384E-04  1.00780998E+00  3.62558894E-01  2.85102244E-01  1.13927530E+02  1.00346641E+00  1.00597601E+00
  1.40000000E-02  9.99999987E-01  1.49834423E-02 -4.64135021E-06  4.03379598E+00  7.13078407E-05  1.61098634E-04  1.00887732E+00  3.89995871E-01  3.05293833E-01  1.08263537E+02  1.00408389E+00  1.00686470E+00
  1.50000000E-02  9.99999983E-01  1.61070043E-02 -5.12179700E-06  4.03379062E+00  7.40538178E-05  1.79476464E-04  1.00995384E+00  4.15862587E-01  3.24083778E-01  1.03408889E+02  1.00472606E+00  1.00777687E+00
  1.60000000E-02  9.99999980E-01  1.72351244E-02 -5.57881916E-06  4.03379006E+00  7.20814875E-05  1.99418147E-04  1.01111019E+00  4.40674580E-01  3.41955660E-01  9.92832073E+01  1.00540582E+00  1.00876184E+00
  1.70000000E-02  9.99999975E-01  1.83673182E-02 -6.00069511E-06  4.03378728E+00  7.00217276E-05  2.20901790E-04  1.01229296E+00  4.64297897E-01  3.59342039E-01  9.58860415E+01  1.00613085E+00  1.00977439E+00
  1.80000000E-02  9.99999970E-01  1.95031977E-02 -6.39827583E-06  4.03378426E+00  6.75614870E-05  2.44091411E-04  1.01355387E+00  4.86410270E-01  3.75986101E-01  9.30086771E+01  1.00691074E+00  1.01084228E+00
  1.90000000E-02  9.99999964E-01  2.06421714E-02 -6.74669139E-06  4.03378763E+00  6.52572092E-05  2.69013978E-04  1.01484130E+00  5.07967259E-01  3.91383053E-01  9.05904494E+01  1.00774433E+00  1.01195898E+00
  2.00000000E-02  9.99999958E-01  2.17836834E-02 -7.02243038E-06  4.03378956E+00  6.52449749E-05  2.95739728E-04  1.01618756E+00  5.27629354E-01  4.05688412E-01  8.84056186E+01  1.00862040E+00  1.01312334E+00
  2.10000000E-02  9.99999951E-01  2.29271748E-02 -7.20379911E-06  4.03378791E+00  6.50247547E-05  3.24152532E-04  1.01757198E+00  5.47536430E-01  4.19407323E-01  8.64995329E+01  1.00953747E+00  1.01432692E+00
  2.20000000E-02  9.99999943E-01  2.40722945E-02 -7.26370992E-06  4.03378179E+00  6.46965988E-05  3.54359581E-04  1.01899392E+00  5.65377039E-01  4.33254910E-01  8.47714727E+01  1.01049122E+00  1.01555193E+00
  2.30000000E-02  9.99999934E-01  2.52188053E-02 -7.15605377E-06  4.03378158E+00  6.36432462E-05  3.86364253E-04  1.02047342E+00  5.83849854E-01  4.47852253E-01  8.32937864E+01  1.01150782E+00  1.01681849E+00
  2.40000000E-02  9.99999925E-01  2.63665576E-02 -6.84560232E-06  4.03378471E+00  6.31374543E-05  4.20110733E-04  1.02195326E+00  6.00447877E-01  4.62048241E-01  8.19248992E+01  1.01256276E+00  1.01810296E+00
  2.50000000E-02  9.99999915E-01  2.75153138E-02 -6.29053056E-06  4.03378420E+00  6.34596966E-05  4.55671014E-04  1.02346850E+00  6.17468542E-01  4.75242349E-01  8.06338824E+01  1.01364205E+00  1.01941331E+00
  2.60000000E-02  9.99999905E-01  2.86648984E-02 -5.47296615E-06  4.03378221E+00  6.34049945E-05  4.92966143E-04  1.02496858E+00  6.33018053E-01  4.87510367E-01  7.93683245E+01  1.01473854E+00  1.02072548E+00
  2.70000000E-02  9.99999893E-01  2.98152521E-02 -4.33415835E-06  4.03378036E+00  6.24190597E-05  5.32127018E-04  1.02649773E+00  6.48609923E-01  4.99644265E-01  7.81395045E+01  1.01586519E+00  1.02205269E+00
  2.80000000E-02  9.99999881E-01  3.09663865E-02 -2.85649337E-06  4.03378086E+00  6.13034399E-05  5.73046118E-04  1.02800228E+00  6.63163901E-01  5.11591162E-01  7.69571224E+01  1.01700429E+00  1.02336890E+00
  2.90000000E-02  9.99999868E-01  3.21183315E-02 -9.81437494E-07  4.03378023E+00  6.10144272E-05  6.15683379E-04  1.02951724E+00  6.77494078E-01  5.23412389E-01  7.58177709E+01  1.01813641E+00  1.02470469E+00
  3.00000000E-02  9.99999855E-01  3.32710925E-02  1.28797362E-06  4.03377868E+00  6.13364670E-05  6.60089543E-04  1.03100981E+00  6.90903538E-01  5.34578737E-01  7.47063953E+01  1.01924043E+00  1.02600746E+00
  3.10000000E-02  9.99999840E-01  3.44246384E-02  4.00155677E-06  4.03376947E+00  6.02197377E-05  7.08192415E-04  1.03250929E+00  7.03985578E-01  5.44959721E-01  7.35961709E+01  1.02046043E+00  1.02746555E+00
  3.20000000E-02  9.99999826E-01  3.55788944E-02  7.18961642E-06  4.03376027E+00  5.90014419E-05  7.58691628E-04  1.03398776E+00  7.16093974E-01  5.54464953E-01  7.24788055E+01  1.02155641E+00  1.02873312E+00
  3.30000000E-02  9.99999811E-01  3.67338420E-02  1.08932694E-05  4.03375221E+00  5.82033240E-05  8.10892725E-04  1.03547142E+00  7.27820354E-01  5.63403667E-01  7.13574830E+01  1.02265908E+00  1.03002346E+00
  3.40000000E-02  9.99999796E-01  3.78895180E-02  1.51434246E-05  4.03374428E+00  5.66723421E-05  8.64624545E-04  1.03693104E+00  7.38686689E-01  5.72073020E-01  7.02519969E+01  1.02375773E+00  1.03126715E+00
  3.50000000E-02  9.99999780E-01  3.90460346E-02  1.99438732E-05  4.03373458E+00  5.42800628E-05  9.20024506E-04  1.03837601E+00  7.48799935E-01  5.80452395E-01  6.91637899E+01  1.02484059E+00  1.03250601E+00
  3.60000000E-02  9.99999764E-01  4.02034130E-02  2.53247426E-05  4.03372311E+00  5.23475261E-05  9.77334419E-04  1.03979723E+00  7.58527878E-01  5.88479525E-01  6.81186716E+01  1.02589511E+00  1.03371766E+00
  3.70000000E-02  9.99999748E-01  4.13617262E-02  3.12586375E-05  4.03371200E+00  5.14078352E-05  1.03645473E-03  1.04119423E+00  7.66939478E-01  5.95783987E-01  6.70725352E+01  1.02691419E+00  1.03488710E+00
  3.80000000E-02  9.99999732E-01  4.25209265E-02  3.77765731E-05  4.03370299E+00  5.03739519E-05  1.09695798E-03  1.04259143E+00  7.75397518E-01  6.02520750E-01  6.60532398E+01  1.02791600E+00  1.03605631E+00
  3.90000000E-02  9.99999715E-01  4.36810937E-02  4.48572038E-05  4.03369721E+00  4.70116081E-05  1.15894892E-03  1.04395747E+00  7.82377866E-01  6.08679459E-01  6.50272078E+01  1.02890745E+00  1.03716757E+00
  4.00000000E-02  9.99999698E-01  4.48422888E-02  5.25289092E-05  4.03369344E+00  4.10137528E-05  1.22274106E-03  1.04532703E+00  7.89190154E-01  6.14465744E-01  6.40192667E+01  1.02989971E+00  1.03827317E+00
  4.10000000E-02  9.99999681E-01  4.60045937E-02  6.07745210E-05  4.03368905E+00  3.41206485E-05  1.28834138E-03  1.04666142E+00  7.95129101E-01  6.20008236E-01  6.30372557E+01  1.03088426E+00  1.03933045E+00
  4.20000000E-02  9.99999663E-01  4.71681428E-02  6.95993258E-05  4.03368590E+00  2.78845994E-05  1.35514159E-03  1.04797199E+00  8.00181110E-01  6.25298342E-01  6.20757559E+01  1.03184791E+00  1.04036476E+00
  4.30000000E-02  9.99999645E-01  4.83329578E-02  7.89757234E-05  4.03368256E+00  2.37030522E-05  1.42350838E-03  1.04925593E+00  8.05046933E-01  6.30123609E-01  6.11552913E+01  1.03277650E+00  1.04137411E+00
  4.40000000E-02  9.99999626E-01  4.94990982E-02  8.88770313E-05  4.03367272E+00  2.34105516E-05  1.49429365E-03  1.05050619E+00  8.08756708E-01  6.34372165E-01  6.02437305E+01  1.03366026E+00  1.04233902E+00
  4.50000000E-02  9.99999607E-01  5.06665616E-02  9.92606433E-05  4.03365555E+00  2.64668144E-05  1.56729312E-03  1.05174526E+00  8.12126659E-01  6.38082920E-01  5.93499775E+01  1.03450650E+00  1.04326978E+00
  4.60000000E-02  9.99999588E-01  5.18353932E-02  1.10089819E-04  4.03363690E+00  2.93129069E-05  1.64203516E-03  1.05296524E+00  8.14948372E-01  6.41449294E-01  5.84748151E+01  1.03533302E+00  1.04417378E+00
  4.70000000E-02  9.99999569E-01  5.30056796E-02  1.21357175E-04  4.03362026E+00  3.03817843E-05  1.71816908E-03  1.05416467E+00  8.16936489E-01  6.44540993E-01  5.76119331E+01  1.03615454E+00  1.04504061E+00
  4.80000000E-02  9.99999549E-01  5.41774902E-02  1.33023685E-04  4.03360696E+00  2.99299905E-05  1.79564541E-03  1.05535012E+00  8.18746537E-01  6.47471679E-01  5.67801881E+01  1.03697220E+00  1.04588652E+00
  4.90000000E-02  9.99999529E-01  5.53509081E-02  1.45091867E-04  4.03359617E+00  2.88614919E-05  1.87441134E-03  1.05649866E+00  8.19884745E-01  6.50239002E-01  5.59781193E+01  1.03777427E+00  1.04671024E+00
  5.00000000E-02  9.99999509E-01  5.65259882E-02  1.57492428E-04  4.03358511E+00  2.86234396E-05  1.95443906E-03  1.05761558E+00  8.20391769E-01  6.52615627E-01  5.51962901E+01  1.03854818E+00  1.04749323E+00
