 # time mean(w) mean(w**2)
  1.00000000E-03  1.00000000E+00  1.02695943E-03 -1.48946207E-08  4.03389046E+00  4.91683919E-05  4.89225443E-05  1.00008669E+00  1.48799283E-02  6.51550315E-03  2.24189874E+02  1.00001322E+00  1.00004400E+00
  2.00000000E-03  1.00000000E+00  2.05447675E-03 -1.13813312E-07  4.03388676E+00  4.99383646E-05  5.09653553E-05  1.00031934E+00  3.87331938E-02  2.24750847E-02  2.12478727E+02  1.00008594E+00  1.00019447E+00
  3.00000000E-03  1.00000000E+00  3.08581257E-03 -3.21995423E-07  4.03386778E+00  5.88950678E-05  5.43492726E-05  1.00074395E+00  6.73133434E-02  4.38015285E-02  2.01782146E+02  1.00013572E+00  1.00049533E+00
  4.00000000E-03  1.00000000E+00  4.12383002E-03 -6.47024960E-07  4.03385411E+00  6.41441347E-05  5.84536489E-05  1.00120147E+00  9.85432200E-02  6.70722493E-02  1.91802292E+02  1.00023955E+00  1.00085064E+00
  5.00000000E-03  1.00000000E+00  5.17030563E-03 -1.05076745E-06  4.03384909E+00  6.13566492E-05  6.35946128E-05  1.00169156E+00  1.27930194E-01  9.03348651E-02  1.81583734E+02  1.00041417E+00  1.00122828E+00
  6.00000000E-03  1.00000000E+00  6.22581865E-03 -1.50179966E-06  4.03385242E+00  5.15154753E-05  6.93004198E-05  1.00231868E+00  1.58481815E-01  1.14217361E-01  1.71495679E+02  1.00067272E+00  1.00166467E+00
  7.00000000E-03  1.00000000E+00  7.29059956E-03 -1.95832800E-06  4.03385743E+00  4.23056799E-05  7.50626192E-05  1.00306443E+00  1.88994815E-01  1.39041751E-01  1.61577724E+02  1.00100536E+00  1.00217628E+00
  8.00000000E-03  1.00000000E+00  8.36448331E-03 -2.43358450E-06  4.03385682E+00  4.17298749E-05  8.14292897E-05  1.00391660E+00  2.19548610E-01  1.64508597E-01  1.52093975E+02  1.00139687E+00  1.00277982E+00
  9.00000000E-03  9.99999999E-01  9.44707496E-03 -2.95254697E-06  4.03384790E+00  5.11413599E-05  8.97176242E-05  1.00484230E+00  2.50197522E-01  1.90963235E-01  1.43137463E+02  1.00184374E+00  1.00345690E+00
  1.00000000E-02  9.99999998E-01  1.05379118E-02 -3.49853518E-06  4.03383908E+00  6.15345069E-05  1.00088865E-04  1.00578854E+00  2.79780154E-01  2.17650317E-01  1.34771727E+02  1.00234843E+00  1.00418045E+00
  1.10000000E-02  9.99999997E-01  1.16364414E-02 -4.04208800E-06  4.03383459E+00  6.49236460E-05  1.12114809E-04  1.00676942E+00  3.08817724E-01  2.43546958E-01  1.27018040E+02  1.00291156E+00  1.00494541E+00
  1.20000000E-02  9.99999996E-01  1.27418757E-02 -4.54496155E-06  4.03383093E+00  6.36184444E-05  1.25936654E-04  1.00779735E+00  3.37889161E-01  2.67446268E-01  1.19847186E+02  1.00352729E+00  1.00576046E+00
  1.30000000E-02  9.99999994E-01  1.38534711E-02 -4.99414280E-06  4.03383126E+00  6.21809776E-05  1.41153971E-04  1.00885259E+00  3.65893136E-01  2.89655120E-01  1.13366471E+02  1.00418252E+00  1.00662036E+00
  1.40000000E-02  9.99999992E-01  1.49707202E-02 -5.36750909E-06  4.03383421E+00  6.21028883E-05  1.57843611E-04  1.00994852E+00  3.93655069E-01  3.10435002E-01  1.07665736E+02  1.00486600E+00  1.00756419E+00
  1.50000000E-02  9.99999989E-01  1.60931170E-02 -5.66786629E-06  4.03383483E+00  6.15014923E-05  1.76118987E-04  1.01106754E+00  4.19524945E-01  3.29682212E-01  1.02742214E+02  1.00556586E+00  1.00852528E+00
  1.60000000E-02  9.99999986E-01  1.72201656E-02 -5.88969124E-06  4.03383457E+00  5.86642911E-05  1.96029668E-04  1.01225964E+00  4.44942068E-01  3.48081464E-01  9.85886888E+01  1.00629367E+00  1.00955657E+00
  1.70000000E-02  9.99999983E-01  1.83513660E-02 -6.04333453E-06  4.03383366E+00  5.50836068E-05  2.17493068E-04  1.01347922E+00  4.68246267E-01  3.65737080E-01  9.51402182E+01  1.00706604E+00  1.01060853E+00
  1.80000000E-02  9.99999979E-01  1.94862529E-02 -6.13051320E-06  4.03383396E+00  5.25485641E-05  2.40560759E-04  1.01478420E+00  4.90991203E-01  3.82209720E-01  9.22324326E+01  1.00789002E+00  1.01174039E+00
  1.90000000E-02  9.99999974E-01  2.06241467E-02 -6.14668773E-06  4.03383840E+00  5.10639800E-05  2.65394147E-04  1.01611744E+00  5.12279544E-01  3.97578187E-01  8.97789314E+01  1.00876520E+00  1.01290634E+00
  2.00000000E-02  9.99999969E-01  2.17644945E-02 -6.07130991E-06  4.03384182E+00  4.97462473E-05  2.92191533E-04  1.01752351E+00  5.32486662E-01  4.12251104E-01  8.76098881E+01  1.00969278E+00  1.01412472E+00
  2.10000000E-02  9.99999964E-01  2.29067385E-02 -5.88075798E-06  4.03383906E+00  4.77906545E-05  3.20907583E-04  1.01895432E+00  5.51968680E-01  4.26668128E-01  8.57541690E+01  1.01066350E+00  1.01537112E+00
  2.20000000E-02  9.99999957E-01  2.40505920E-02 -5.55298878E-06  4.03383162E+00  4.51762737E-05  3.51601907E-04  1.02044116E+00  5.70148304E-01  4.41302224E-01  8.40942041E+01  1.01168186E+00  1.01664007E+00
  2.30000000E-02  9.99999951E-01  2.51958098E-02 -5.03719077E-06  4.03383216E+00  4.24833323E-05  3.84174206E-04  1.02195683E+00  5.88681446E-01  4.56233155E-01  8.26851893E+01  1.01276756E+00  1.01795890E+00
  2.40000000E-02  9.99999944E-01  2.63422327E-02 -4.28961736E-06  4.03383827E+00  3.97298284E-05  4.18583649E-04  1.02347831E+00  6.05146686E-01  4.70351263E-01  8.13382324E+01  1.01389358E+00  1.01929064E+00
  2.50000000E-02  9.99999936E-01  2.74895841E-02 -3.27045242E-06  4.03384202E+00  3.67469539E-05  4.54793479E-04  1.02502737E+00  6.22438724E-01  4.83467862E-01  8.00948323E+01  1.01504301E+00  1.02065415E+00
  2.60000000E-02  9.99999928E-01  2.86377293E-02 -1.96292104E-06  4.03384019E+00  3.31806826E-05  4.92715813E-04  1.02656324E+00  6.37565631E-01  4.95870952E-01  7.88396703E+01  1.01619964E+00  1.02200645E+00
  2.70000000E-02  9.99999919E-01  2.97865999E-02 -3.17968740E-07  4.03383281E+00  3.09764646E-05  5.33100752E-04  1.02812676E+00  6.53548021E-01  5.08306190E-01  7.76596971E+01  1.01737701E+00  1.02339396E+00
  2.80000000E-02  9.99999910E-01  3.09362180E-02  1.69171967E-06  4.03382146E+00  3.36208036E-05  5.76538461E-04  1.02965424E+00  6.67644168E-01  5.20548870E-01  7.64972567E+01  1.01854558E+00  1.02474613E+00
  2.90000000E-02  9.99999900E-01  3.20866688E-02  4.11869577E-06  4.03381001E+00  3.69824446E-05  6.21670999E-04  1.03119817E+00  6.82177592E-01  5.32598702E-01  7.53931003E+01  1.01971062E+00  1.02611392E+00
  3.00000000E-02  9.99999890E-01  3.32379773E-02  6.95823887E-06  4.03379931E+00  3.95808810E-05  6.69031861E-04  1.03271087E+00  6.95441560E-01  5.43722494E-01  7.42933590E+01  1.02098371E+00  1.02758464E+00
  3.10000000E-02  9.99999879E-01  3.43900710E-02  1.02668046E-05  4.03378985E+00  3.98801979E-05  7.18512219E-04  1.03423050E+00  7.08480617E-01  5.53931977E-01  7.31866175E+01  1.02213414E+00  1.02892987E+00
  3.20000000E-02  9.99999868E-01  3.55428719E-02  1.40508697E-05  4.03378019E+00  4.04009703E-05  7.69674024E-04  1.03573232E+00  7.20725888E-01  5.63329731E-01  7.20756375E+01  1.02328129E+00  1.03023212E+00
  3.30000000E-02  9.99999857E-01  3.66964162E-02  1.83626345E-05  4.03377010E+00  4.10148127E-05  8.22517159E-04  1.03723263E+00  7.32306211E-01  5.72426283E-01  7.09616741E+01  1.02443362E+00  1.03154288E+00
  3.40000000E-02  9.99999845E-01  3.78507904E-02  2.32087436E-05  4.03376037E+00  4.14413761E-05  8.77000632E-04  1.03871147E+00  7.43188671E-01  5.81308980E-01  6.98703045E+01  1.02557599E+00  1.03280691E+00
  3.50000000E-02  9.99999833E-01  3.90060977E-02  2.86079323E-05  4.03375064E+00  4.16504269E-05  9.33103097E-04  1.04017229E+00  7.53403161E-01  5.89968096E-01  6.88040226E+01  1.02670422E+00  1.03406903E+00
  3.60000000E-02  9.99999821E-01  4.01623920E-02  3.45707898E-05  4.03374101E+00  4.21324137E-05  9.90835638E-04  1.04161099E+00  7.62885285E-01  5.98079742E-01  6.77622511E+01  1.02779881E+00  1.03529257E+00
  3.70000000E-02  9.99999809E-01  4.13196917E-02  4.10874654E-05  4.03373069E+00  4.30074269E-05  1.05020221E-03  1.04303471E+00  7.71678554E-01  6.05389110E-01  6.67263012E+01  1.02886363E+00  1.03648802E+00
  3.80000000E-02  9.99999797E-01  4.24779803E-02  4.81866829E-05  4.03372045E+00  4.37407449E-05  1.11118192E-03  1.04444404E+00  7.79780287E-01  6.12058212E-01  6.56985143E+01  1.02990796E+00  1.03766251E+00
  3.90000000E-02  9.99999784E-01  4.36373545E-02  5.58476124E-05  4.03371047E+00  4.40219785E-05  1.17371934E-03  1.04583813E+00  7.87011445E-01  6.18257859E-01  6.46741120E+01  1.03093637E+00  1.03878462E+00
  4.00000000E-02  9.99999771E-01  4.47978709E-02  6.40942743E-05  4.03370025E+00  4.45869148E-05  1.23783531E-03  1.04721718E+00  7.93770272E-01  6.24160010E-01  6.36729894E+01  1.03195354E+00  1.03989847E+00
  4.10000000E-02  9.99999757E-01  4.59596644E-02  7.28925934E-05  4.03368873E+00  4.67730620E-05  1.30363253E-03  1.04856557E+00  7.99556285E-01  6.29900180E-01  6.26943508E+01  1.03295327E+00  1.04095745E+00
  4.20000000E-02  9.99999744E-01  4.71228281E-02  8.22411528E-05  4.03367602E+00  5.03886099E-05  1.37113450E-03  1.04988910E+00  8.04883094E-01  6.35321816E-01  6.17499701E+01  1.03392952E+00  1.04199529E+00
  4.30000000E-02  9.99999730E-01  4.82874068E-02  9.21040337E-05  4.03366438E+00  5.35931031E-05  1.44029937E-03  1.05117702E+00  8.09392412E-01  6.40124465E-01  6.08265299E+01  1.03487279E+00  1.04299568E+00
  4.40000000E-02  9.99999716E-01  4.94534317E-02  1.02476285E-04  4.03365538E+00  5.45684122E-05  1.51099659E-03  1.05244326E+00  8.13258602E-01  6.44246412E-01  5.99179713E+01  1.03578849E+00  1.04395914E+00
  4.50000000E-02  9.99999701E-01  5.06208979E-02  1.13333533E-04  4.03364915E+00  5.26785316E-05  1.58321763E-03  1.05368915E+00  8.16542727E-01  6.47784491E-01  5.90220335E+01  1.03667885E+00  1.04489738E+00
  4.60000000E-02  9.99999687E-01  5.17898858E-02  1.24675178E-04  4.03364355E+00  4.80192148E-05  1.65707588E-03  1.05491593E+00  8.19216042E-01  6.50997323E-01  5.81442071E+01  1.03755277E+00  1.04579797E+00
  4.70000000E-02  9.99999672E-01  5.29604558E-02  1.36472291E-04  4.03363738E+00  4.21461891E-05  1.73257871E-03  1.05612119E+00  8.21218640E-01  6.53974549E-01  5.72842634E+01  1.03841182E+00  1.04666294E+00
  4.80000000E-02  9.99999657E-01  5.41326961E-02  1.48698123E-04  4.03363026E+00  3.73502356E-05  1.80965085E-03  1.05730427E+00  8.22868425E-01  6.56896940E-01  5.64579696E+01  1.03925643E+00  1.04750544E+00
  4.90000000E-02  9.99999642E-01  5.53066788E-02  1.61310905E-04  4.03362229E+00  3.50226014E-05  1.88829623E-03  1.05845342E+00  8.23851150E-01  6.59588302E-01  5.56595058E+01  1.04007826E+00  1.04831313E+00
  5.00000000E-02  9.99999627E-01  5.64824292E-02  1.74246921E-04  4.03361427E+00  3.45095483E-05  1.96856339E-03  1.05957307E+00  8.24377032E-01  6.61822418E-01  5.48839162E+01  1.04087052E+00  1.04909428E+00
