 # time mean(w) mean(w**2)
  1.00000000E-03  1.00000000E+00  1.02695223E-03 -1.49424850E-08  4.03389043E+00  4.91662159E-05  4.89221320E-05  1.00008823E+00  1.50046854E-02  6.53151985E-03  2.24205833E+02  1.00001335E+00  1.00004475E+00
  2.00000000E-03  1.00000000E+00  2.05442154E-03 -1.16344910E-07  4.03388685E+00  4.99346162E-05  5.09618351E-05  1.00032240E+00  3.92145007E-02  2.26141487E-02  2.12535687E+02  1.00008602E+00  1.00019507E+00
  3.00000000E-03  1.00000000E+00  3.08569701E-03 -3.27806048E-07  4.03386859E+00  5.88774630E-05  5.42036084E-05  1.00075580E+00  6.79456968E-02  4.41962798E-02  2.01882611E+02  1.00013667E+00  1.00050215E+00
  4.00000000E-03  1.00000000E+00  4.12371383E-03 -6.53482496E-07  4.03385521E+00  6.43310249E-05  5.81415415E-05  1.00122691E+00  9.97156476E-02  6.78723690E-02  1.91948253E+02  1.00024071E+00  1.00086705E+00
  5.00000000E-03  1.00000000E+00  5.17029351E-03 -1.04422295E-06  4.03385038E+00  6.18129111E-05  6.30181765E-05  1.00171860E+00  1.29219866E-01  9.14437292E-02  1.81758897E+02  1.00041545E+00  1.00125176E+00
  6.00000000E-03  1.00000000E+00  6.22599280E-03 -1.47333786E-06  4.03385370E+00  5.22771542E-05  6.83883319E-05  1.00234242E+00  1.59981882E-01  1.15489902E-01  1.71714035E+02  1.00067414E+00  1.00169503E+00
  7.00000000E-03  9.99999999E-01  7.29101130E-03 -1.91659971E-06  4.03385901E+00  4.26838917E-05  7.39124658E-05  1.00309028E+00  1.90727077E-01  1.40437323E-01  1.61805875E+02  1.00100901E+00  1.00221243E+00
  8.00000000E-03  9.99999999E-01  8.36520453E-03 -2.37994508E-06  4.03385898E+00  4.14118172E-05  8.00395899E-05  1.00394646E+00  2.21484128E-01  1.65935341E-01  1.52328237E+02  1.00140449E+00  1.00281950E+00
  9.00000000E-03  9.99999998E-01  9.44814493E-03 -2.88072475E-06  4.03385098E+00  5.01352884E-05  8.78173054E-05  1.00488161E+00  2.52252563E-01  1.92456459E-01  1.43374573E+02  1.00185659E+00  1.00349780E+00
  1.00000000E-02  9.99999997E-01  1.05393540E-02 -3.40800845E-06  4.03384252E+00  6.06018579E-05  9.75762059E-05  1.00583757E+00  2.81924686E-01  2.19294305E-01  1.35003821E+02  1.00236527E+00  1.00422083E+00
  1.10000000E-02  9.99999996E-01  1.16382874E-02 -3.94733842E-06  4.03383806E+00  6.44404491E-05  1.09055934E-04  1.00682661E+00  3.11085864E-01  2.45583585E-01  1.27259795E+02  1.00293146E+00  1.00498593E+00
  1.20000000E-02  9.99999994E-01  1.27441713E-02 -4.44935842E-06  4.03383437E+00  6.32794530E-05  1.22358895E-04  1.00786250E+00  3.40250635E-01  2.69805729E-01  1.20095912E+02  1.00354844E+00  1.00580095E+00
  1.30000000E-02  9.99999992E-01  1.38562229E-02 -4.88610091E-06  4.03383417E+00  6.16200853E-05  1.37135476E-04  1.00892282E+00  3.68322224E-01  2.92272957E-01  1.13623801E+02  1.00420570E+00  1.00665851E+00
  1.40000000E-02  9.99999990E-01  1.49739403E-02 -5.22656684E-06  4.03383730E+00  6.11214806E-05  1.53400244E-04  1.01002095E+00  3.96066016E-01  3.13299037E-01  1.07940961E+02  1.00489380E+00  1.00760165E+00
  1.50000000E-02  9.99999987E-01  1.60968433E-02 -5.47436343E-06  4.03383920E+00  6.03806705E-05  1.71215451E-04  1.01113926E+00  4.21937756E-01  3.32710675E-01  1.03040039E+02  1.00559976E+00  1.00856280E+00
  1.60000000E-02  9.99999984E-01  1.72244476E-02 -5.63447404E-06  4.03384063E+00  5.77303847E-05  1.90676445E-04  1.01233264E+00  4.47383301E-01  3.51258975E-01  9.89082859E+01  1.00633342E+00  1.00959541E+00
  1.70000000E-02  9.99999981E-01  1.83562499E-02 -5.71542057E-06  4.03384062E+00  5.43804907E-05  2.11747537E-04  1.01355243E+00  4.70669950E-01  3.69186826E-01  9.54794832E+01  1.00711135E+00  1.01065106E+00
  1.80000000E-02  9.99999977E-01  1.94918272E-02 -5.71860575E-06  4.03384051E+00  5.19749626E-05  2.34414553E-04  1.01485909E+00  4.93444773E-01  3.86091497E-01  9.25912602E+01  1.00794052E+00  1.01178075E+00
  1.90000000E-02  9.99999972E-01  2.06305044E-02 -5.62705226E-06  4.03384443E+00  5.07247378E-05  2.58862016E-04  1.01619264E+00  5.14745505E-01  4.01761251E-01  9.01490307E+01  1.00881973E+00  1.01294696E+00
  2.00000000E-02  9.99999967E-01  2.17716851E-02 -5.41464330E-06  4.03384800E+00  4.96210303E-05  2.85343197E-04  1.01759850E+00  5.34967752E-01  4.16554097E-01  8.79776354E+01  1.00975125E+00  1.01416149E+00
  2.10000000E-02  9.99999962E-01  2.29147663E-02 -5.06460371E-06  4.03384680E+00  4.78277299E-05  3.13811795E-04  1.01902711E+00  5.54469568E-01  4.30961060E-01  8.61062023E+01  1.01072733E+00  1.01541075E+00
  2.20000000E-02  9.99999956E-01  2.40594305E-02 -4.55549802E-06  4.03384058E+00  4.52370428E-05  3.44297271E-04  1.02050937E+00  5.72630084E-01  4.45474322E-01  8.44218275E+01  1.01174820E+00  1.01667642E+00
  2.30000000E-02  9.99999949E-01  2.52054172E-02 -3.84223310E-06  4.03384192E+00  4.22635644E-05  3.76667838E-04  1.02202438E+00  5.91204037E-01  4.60427291E-01  8.29940023E+01  1.01283496E+00  1.01799511E+00
  2.40000000E-02  9.99999943E-01  2.63525949E-02 -2.88075507E-06  4.03384828E+00  3.92934050E-05  4.10877388E-04  1.02354075E+00  6.07633593E-01  4.74674392E-01  8.16376091E+01  1.01396121E+00  1.01932371E+00
  2.50000000E-02  9.99999935E-01  2.75007001E-02 -1.64013977E-06  4.03385222E+00  3.63326634E-05  4.46898139E-04  1.02508296E+00  6.24943647E-01  4.87845556E-01  8.03912929E+01  1.01511026E+00  1.02068585E+00
  2.60000000E-02  9.99999927E-01  2.86495937E-02 -1.03257453E-07  4.03385117E+00  3.29510625E-05  4.84632538E-04  1.02660882E+00  6.40030425E-01  5.00162490E-01  7.91306453E+01  1.01626623E+00  1.02203671E+00
  2.70000000E-02  9.99999919E-01  2.97992007E-02  1.77752697E-06  4.03384821E+00  2.88691838E-05  5.24111951E-04  1.02816697E+00  6.56033309E-01  5.12434199E-01  7.79399218E+01  1.01744433E+00  1.02341050E+00
  2.80000000E-02  9.99999910E-01  3.09495163E-02  4.02219567E-06  4.03383821E+00  3.00031480E-05  5.67118131E-04  1.02968895E+00  6.70098478E-01  5.24555129E-01  7.67663859E+01  1.01862010E+00  1.02477282E+00
  2.90000000E-02  9.99999901E-01  3.21006165E-02  6.69878175E-06  4.03382722E+00  3.33184402E-05  6.12186511E-04  1.03122930E+00  6.84609535E-01  5.36527089E-01  7.56520249E+01  1.01978685E+00  1.02613831E+00
  3.00000000E-02  9.99999891E-01  3.32525192E-02  9.79943425E-06  4.03381702E+00  3.61258968E-05  6.59258615E-04  1.03273880E+00  6.97898708E-01  5.47734958E-01  7.45513536E+01  1.02106109E+00  1.02760758E+00
  3.10000000E-02  9.99999881E-01  3.44052476E-02  1.33826876E-05  4.03380818E+00  3.64218438E-05  7.08609971E-04  1.03425491E+00  7.10898544E-01  5.58085833E-01  7.34463976E+01  1.02221314E+00  1.02895228E+00
  3.20000000E-02  9.99999870E-01  3.55586877E-02  1.74548062E-05  4.03379926E+00  3.68986531E-05  7.59643496E-04  1.03575147E+00  7.23172721E-01  5.67554153E-01  7.23389884E+01  1.02336202E+00  1.03025362E+00
  3.30000000E-02  9.99999860E-01  3.67128713E-02  2.20684017E-05  4.03378992E+00  3.74605527E-05  8.12351230E-04  1.03724607E+00  7.34740500E-01  5.76589886E-01  7.12231373E+01  1.02451659E+00  1.03156360E+00
  3.40000000E-02  9.99999849E-01  3.78678645E-02  2.72346011E-05  4.03378103E+00  3.78549059E-05  8.66699711E-04  1.03872316E+00  7.45671454E-01  5.85372454E-01  7.01259116E+01  1.02566112E+00  1.03282878E+00
  3.50000000E-02  9.99999838E-01  3.90237670E-02  3.29703655E-05  4.03377213E+00  3.80374179E-05  9.22666463E-04  1.04018215E+00  7.55912703E-01  5.93916863E-01  6.90515813E+01  1.02679272E+00  1.03409134E+00
  3.60000000E-02  9.99999826E-01  4.01806353E-02  3.92914254E-05  4.03376335E+00  3.84716001E-05  9.80259763E-04  1.04162005E+00  7.65425835E-01  6.02036244E-01  6.80058601E+01  1.02789167E+00  1.03531771E+00
  3.70000000E-02  9.99999815E-01  4.13385178E-02  4.61796663E-05  4.03375390E+00  3.93079904E-05  1.03948351E-03  1.04304433E+00  7.74247943E-01  6.09453364E-01  6.69700096E+01  1.02895980E+00  1.03651387E+00
  3.80000000E-02  9.99999803E-01  4.24974003E-02  5.36675645E-05  4.03374444E+00  4.00237569E-05  1.10031594E-03  1.04445434E+00  7.82410872E-01  6.16293994E-01  6.59472245E+01  1.03000783E+00  1.03769306E+00
  3.90000000E-02  9.99999791E-01  4.36573825E-02  6.17265950E-05  4.03373530E+00  4.02555934E-05  1.16270718E-03  1.04584769E+00  7.89638939E-01  6.22599044E-01  6.49252274E+01  1.03104032E+00  1.03881637E+00
  4.00000000E-02  9.99999779E-01  4.48185062E-02  7.03885058E-05  4.03372594E+00  4.06717699E-05  1.22666416E-03  1.04722797E+00  7.96505407E-01  6.28508713E-01  6.39253538E+01  1.03206236E+00  1.03993662E+00
  4.10000000E-02  9.99999766E-01  4.59808911E-02  7.96174275E-05  4.03371535E+00  4.26791564E-05  1.29229225E-03  1.04857717E+00  8.02279773E-01  6.34192248E-01  6.29424052E+01  1.03306699E+00  1.04099769E+00
  4.20000000E-02  9.99999753E-01  4.71446317E-02  8.94144621E-05  4.03370342E+00  4.62117550E-05  1.35961996E-03  1.04990536E+00  8.07697032E-01  6.39573004E-01  6.19943049E+01  1.03404869E+00  1.04204141E+00
  4.30000000E-02  9.99999740E-01  4.83097742E-02  9.97440069E-05  4.03369230E+00  4.95673108E-05  1.42861706E-03  1.05119622E+00  8.12254287E-01  6.44436757E-01  6.10705101E+01  1.03499741E+00  1.04304668E+00
  4.40000000E-02  9.99999726E-01  4.94763784E-02  1.10595499E-04  4.03368372E+00  5.07690958E-05  1.49914998E-03  1.05246616E+00  8.16135906E-01  6.48690341E-01  6.01626983E+01  1.03591844E+00  1.04401398E+00
  4.50000000E-02  9.99999713E-01  5.06444328E-02  1.21944470E-04  4.03367789E+00  4.91861680E-05  1.57120733E-03  1.05371610E+00  8.19534838E-01  6.52376792E-01  5.92720569E+01  1.03681379E+00  1.04495983E+00
  4.60000000E-02  9.99999699E-01  5.18140195E-02  1.33785334E-04  4.03367287E+00  4.48106327E-05  1.64488843E-03  1.05494543E+00  8.22197356E-01  6.55709617E-01  5.83958699E+01  1.03769237E+00  1.04586350E+00
  4.70000000E-02  9.99999684E-01  5.29851903E-02  1.46092731E-04  4.03366727E+00  3.91421803E-05  1.72021787E-03  1.05615432E+00  8.24284261E-01  6.58716690E-01  5.75367095E+01  1.03855613E+00  1.04673647E+00
  4.80000000E-02  9.99999670E-01  5.41580166E-02  1.58837925E-04  4.03366078E+00  3.42803713E-05  1.79711010E-03  1.05734126E+00  8.25985165E-01  6.61592226E-01  5.67078141E+01  1.03940570E+00  1.04758377E+00
  4.90000000E-02  9.99999655E-01  5.53325729E-02  1.71985084E-04  4.03365338E+00  3.18622456E-05  1.87557008E-03  1.05849488E+00  8.26982950E-01  6.64238006E-01  5.59051899E+01  1.04023268E+00  1.04839779E+00
  5.00000000E-02  9.99999641E-01  5.65088892E-02  1.85464068E-04  4.03364583E+00  3.13675493E-05  1.95563776E-03  1.05962173E+00  8.27591599E-01  6.66513086E-01  5.51283503E+01  1.04103081E+00  1.04918496E+00
