 # time mean(w) mean(w**2)
  1.00000000E-03  1.00000000E+00  1.02695223E-03 -1.49431419E-08  4.03389043E+00  4.91662157E-05  4.89221301E-05  1.00008823E+00  1.50046854E-02  6.53151988E-03  2.24205833E+02  1.00001335E+00  1.00004475E+00
  2.00000000E-03  1.00000000E+00  2.05442154E-03 -1.16346157E-07  4.03388685E+00  4.99346166E-05  5.09618341E-05  1.00032240E+00  3.92145007E-02  2.26141488E-02  2.12535687E+02  1.00008602E+00  1.00019507E+00
  3.00000000E-03  1.00000000E+00  3.08569701E-03 -3.27803783E-07  4.03386859E+00  5.88774649E-05  5.42035444E-05  1.00075580E+00  6.79456962E-02  4.41962798E-02  2.01882611E+02  1.00013667E+00  1.00050215E+00
  4.00000000E-03  1.00000000E+00  4.12371378E-03 -6.53479545E-07  4.03385521E+00  6.43296515E-05  5.81412295E-05  1.00122691E+00  9.97156452E-02  6.78723661E-02  1.91948253E+02  1.00024070E+00  1.00086705E+00
  5.00000000E-03  1.00000000E+00  5.17029338E-03 -1.04424454E-06  4.03385038E+00  6.18105221E-05  6.30174854E-05  1.00171860E+00  1.29219867E-01  9.14437281E-02  1.81758898E+02  1.00041546E+00  1.00125176E+00
  6.00000000E-03  1.00000000E+00  6.22599260E-03 -1.47339775E-06  4.03385370E+00  5.22750324E-05  6.83873253E-05  1.00234242E+00  1.59981887E-01  1.15489902E-01  1.71714036E+02  1.00067414E+00  1.00169503E+00
  7.00000000E-03  9.99999999E-01  7.29101105E-03 -1.91670238E-06  4.03385901E+00  4.26818631E-05  7.39113171E-05  1.00309028E+00  1.90727073E-01  1.40437321E-01  1.61805877E+02  1.00100902E+00  1.00221242E+00
  8.00000000E-03  9.99999999E-01  8.36520422E-03 -2.38008960E-06  4.03385898E+00  4.14096786E-05  8.00386585E-05  1.00394646E+00  2.21484126E-01  1.65935341E-01  1.52328237E+02  1.00140449E+00  1.00281950E+00
  9.00000000E-03  9.99999998E-01  9.44814459E-03 -2.88091452E-06  4.03385098E+00  5.01325101E-05  8.78170880E-05  1.00488161E+00  2.52252568E-01  1.92456462E-01  1.43374574E+02  1.00185660E+00  1.00349779E+00
  1.00000000E-02  9.99999997E-01  1.05393536E-02 -3.40824456E-06  4.03384252E+00  6.05984127E-05  9.75771173E-05  1.00583757E+00  2.81924694E-01  2.19294309E-01  1.35003822E+02  1.00236527E+00  1.00422082E+00
  1.10000000E-02  9.99999996E-01  1.16382870E-02 -3.94762631E-06  4.03383806E+00  6.44362185E-05  1.09058300E-04  1.00682661E+00  3.11085874E-01  2.45583589E-01  1.27259796E+02  1.00293146E+00  1.00498591E+00
  1.20000000E-02  9.99999994E-01  1.27441708E-02 -4.44969034E-06  4.03383437E+00  6.32742646E-05  1.22362957E-04  1.00786250E+00  3.40250646E-01  2.69805733E-01  1.20095913E+02  1.00354844E+00  1.00580094E+00
  1.30000000E-02  9.99999992E-01  1.38562223E-02 -4.88643179E-06  4.03383417E+00  6.16138103E-05  1.37141325E-04  1.00892282E+00  3.68322236E-01  2.92272961E-01  1.13623802E+02  1.00420571E+00  1.00665850E+00
  1.40000000E-02  9.99999990E-01  1.49739397E-02 -5.22685203E-06  4.03383730E+00  6.11138769E-05  1.53407826E-04  1.01002095E+00  3.96066026E-01  3.13299041E-01  1.07940961E+02  1.00489381E+00  1.00760164E+00
  1.50000000E-02  9.99999987E-01  1.60968428E-02 -5.47461780E-06  4.03383921E+00  6.03714750E-05  1.71224674E-04  1.01113926E+00  4.21937762E-01  3.32710678E-01  1.03040039E+02  1.00559978E+00  1.00856278E+00
  1.60000000E-02  9.99999984E-01  1.72244471E-02 -5.63474073E-06  4.03384063E+00  5.77192463E-05  1.90687222E-04  1.01233264E+00  4.47383302E-01  3.51258977E-01  9.89082862E+01  1.00633344E+00  1.00959539E+00
  1.70000000E-02  9.99999980E-01  1.83562493E-02 -5.71571896E-06  4.03384063E+00  5.43670616E-05  2.11759744E-04  1.01355243E+00  4.70669949E-01  3.69186827E-01  9.54794834E+01  1.00711139E+00  1.01065104E+00
  1.80000000E-02  9.99999977E-01  1.94918266E-02 -5.71892259E-06  4.03384052E+00  5.19590590E-05  2.34428058E-04  1.01485909E+00  4.93444770E-01  3.86091497E-01  9.25912603E+01  1.00794057E+00  1.01178074E+00
  1.90000000E-02  9.99999972E-01  2.06305037E-02 -5.62736799E-06  4.03384445E+00  5.07061432E-05  2.58876777E-04  1.01619264E+00  5.14745501E-01  4.01761251E-01  9.01490308E+01  1.00881978E+00  1.01294695E+00
  2.00000000E-02  9.99999967E-01  2.17716843E-02 -5.41495223E-06  4.03384802E+00  4.95995668E-05  2.85359169E-04  1.01759850E+00  5.34967747E-01  4.16554097E-01  8.79776356E+01  1.00975131E+00  1.01416148E+00
  2.10000000E-02  9.99999962E-01  2.29147653E-02 -5.06490987E-06  4.03384683E+00  4.78032019E-05  3.13828939E-04  1.01902711E+00  5.54469564E-01  4.30961061E-01  8.61062025E+01  1.01072740E+00  1.01541074E+00
  2.20000000E-02  9.99999956E-01  2.40594294E-02 -4.55580995E-06  4.03384061E+00  4.52092818E-05  3.44315634E-04  1.02050937E+00  5.72630078E-01  4.45474325E-01  8.44218276E+01  1.01174828E+00  1.01667641E+00
  2.30000000E-02  9.99999950E-01  2.52054159E-02 -3.84256462E-06  4.03384196E+00  4.22323596E-05  3.76687407E-04  1.02202438E+00  5.91204030E-01  4.60427295E-01  8.29940023E+01  1.01283505E+00  1.01799509E+00
  2.40000000E-02  9.99999943E-01  2.63525934E-02 -2.88112078E-06  4.03384832E+00  3.92586487E-05  4.10898133E-04  1.02354075E+00  6.07633586E-01  4.74674399E-01  8.16376091E+01  1.01396130E+00  1.01932369E+00
  2.50000000E-02  9.99999935E-01  2.75006984E-02 -1.64055159E-06  4.03385227E+00  3.62943297E-05  4.46920148E-04  1.02508296E+00  6.24943639E-01  4.87845566E-01  8.03912929E+01  1.01511037E+00  1.02068584E+00
  2.60000000E-02  9.99999928E-01  2.86495917E-02 -1.03724326E-07  4.03385122E+00  3.29091424E-05  4.84655891E-04  1.02660882E+00  6.40030421E-01  5.00162506E-01  7.91306453E+01  1.01626634E+00  1.02203670E+00
  2.70000000E-02  9.99999919E-01  2.97991869E-02  1.77740861E-06  4.03384487E+00  3.08690964E-05  5.24858458E-04  1.02816697E+00  6.56032872E-01  5.12434377E-01  7.79404884E+01  1.01744249E+00  1.02342314E+00
  2.80000000E-02  9.99999910E-01  3.09494900E-02  4.03121229E-06  4.03383412E+00  3.34841351E-05  5.68186234E-04  1.02968895E+00  6.70097418E-01  5.24558926E-01  7.67668636E+01  1.01861067E+00  1.02477257E+00
  2.90000000E-02  9.99999901E-01  3.21005855E-02  6.71367441E-06  4.03382337E+00  3.67781049E-05  6.13225288E-04  1.03122922E+00  6.84608329E-01  5.36533694E-01  7.56524233E+01  1.01977734E+00  1.02613779E+00
  3.00000000E-02  9.99999891E-01  3.32525181E-02  9.81953006E-06  4.03381357E+00  3.92931348E-05  6.60438383E-04  1.03273869E+00  6.97897517E-01  5.47743266E-01  7.45516521E+01  1.02105217E+00  1.02760617E+00
  3.10000000E-02  9.99999881E-01  3.44052443E-02  1.34070976E-05  4.03380475E+00  3.95680473E-05  7.09788987E-04  1.03425478E+00  7.10898007E-01  5.58095891E-01  7.34466008E+01  1.02220397E+00  1.02894984E+00
  3.20000000E-02  9.99999871E-01  3.55586833E-02  1.74829363E-05  4.03379584E+00  4.00352113E-05  7.60818455E-04  1.03575131E+00  7.23172488E-01  5.67563884E-01  7.23390887E+01  1.02335258E+00  1.03025040E+00
  3.30000000E-02  9.99999860E-01  3.67128662E-02  2.20995886E-05  4.03378650E+00  4.05918582E-05  8.13521100E-04  1.03724596E+00  7.34741966E-01  5.76598631E-01  7.12231334E+01  1.02450689E+00  1.03155968E+00
  3.40000000E-02  9.99999849E-01  3.78678592E-02  2.72681327E-05  4.03377762E+00  4.09811178E-05  8.67865224E-04  1.03872315E+00  7.45675825E-01  5.85381408E-01  7.01258651E+01  1.02565114E+00  1.03282420E+00
  3.50000000E-02  9.99999838E-01  3.90237622E-02  3.30056080E-05  4.03376873E+00  4.11574917E-05  9.23828754E-04  1.04018223E+00  7.55919334E-01  5.93927507E-01  6.90515560E+01  1.02678254E+00  1.03408612E+00
  3.60000000E-02  9.99999827E-01  4.01806315E-02  3.93279319E-05  4.03375996E+00  4.15836722E-05  9.81419016E-04  1.04162028E+00  7.65434795E-01  6.02048827E-01  6.80058497E+01  1.02788140E+00  1.03531197E+00
  3.70000000E-02  9.99999816E-01  4.13385156E-02  4.62168378E-05  4.03375052E+00  4.24090674E-05  1.04063945E-03  1.04304469E+00  7.74258404E-01  6.09466954E-01  6.69700201E+01  1.02894941E+00  1.03650757E+00
  3.80000000E-02  9.99999804E-01  4.24974004E-02  5.37045820E-05  4.03374108E+00  4.31133094E-05  1.10146861E-03  1.04445478E+00  7.82421817E-01  6.16307576E-01  6.59472257E+01  1.02999731E+00  1.03768627E+00
  3.90000000E-02  9.99999792E-01  4.36573850E-02  6.17624997E-05  4.03373195E+00  4.33355059E-05  1.16385642E-03  1.04584822E+00  7.89651189E-01  6.22611188E-01  6.49252150E+01  1.03102963E+00  1.03880913E+00
  4.00000000E-02  9.99999779E-01  4.48185113E-02  7.04222962E-05  4.03372260E+00  4.37433934E-05  1.22781006E-03  1.04722851E+00  7.96516530E-01  6.28518479E-01  6.39252712E+01  1.03205147E+00  1.03992900E+00
  4.10000000E-02  9.99999767E-01  4.59808988E-02  7.96482791E-05  4.03371201E+00  4.57413042E-05  1.29343542E-03  1.04857775E+00  8.02291248E-01  6.34200218E-01  6.29423051E+01  1.03305592E+00  1.04098968E+00
  4.20000000E-02  9.99999754E-01  4.71446421E-02  8.94416972E-05  4.03370009E+00  4.92631653E-05  1.36076059E-03  1.04990602E+00  8.07709092E-01  6.39579770E-01  6.19942068E+01  1.03403745E+00  1.04203303E+00
  4.30000000E-02  9.99999741E-01  4.83097873E-02  9.97670283E-05  4.03368897E+00  5.26062437E-05  1.42975470E-03  1.05119696E+00  8.12266661E-01  6.44442967E-01  6.10704151E+01  1.03498602E+00  1.04303800E+00
  4.40000000E-02  9.99999727E-01  4.94763945E-02  1.10613853E-04  4.03368039E+00  5.37949262E-05  1.50028436E-03  1.05246698E+00  8.16149114E-01  6.48696473E-01  6.01626595E+01  1.03590697E+00  1.04400507E+00
  4.50000000E-02  9.99999713E-01  5.06444519E-02  1.21957797E-04  4.03367457E+00  5.21988701E-05  1.57233829E-03  1.05371698E+00  8.19547544E-01  6.52383426E-01  5.92720494E+01  1.03680228E+00  1.04495071E+00
  4.60000000E-02  9.99999699E-01  5.18140421E-02  1.33793387E-04  4.03366956E+00  4.78114866E-05  1.64601660E-03  1.05494641E+00  8.22210955E-01  6.55716693E-01  5.83959136E+01  1.03768086E+00  1.04585423E+00
  4.70000000E-02  9.99999685E-01  5.29852163E-02  1.46095372E-04  4.03366396E+00  4.21327953E-05  1.72134415E-03  1.05615535E+00  8.24298270E-01  6.58723835E-01  5.75367999E+01  1.03854469E+00  1.04672710E+00
  4.80000000E-02  9.99999671E-01  5.41580461E-02  1.58835009E-04  4.03365748E+00  3.72617270E-05  1.79823488E-03  1.05734233E+00  8.25999100E-01  6.61599079E-01  5.67079206E+01  1.03939432E+00  1.04757434E+00
  4.90000000E-02  9.99999656E-01  5.53326058E-02  1.71976492E-04  4.03365009E+00  3.48348454E-05  1.87669264E-03  1.05849598E+00  8.26997570E-01  6.64244313E-01  5.59053215E+01  1.04022134E+00  1.04838830E+00
  5.00000000E-02  9.99999642E-01  5.65089253E-02  1.85449636E-04  4.03364255E+00  3.43314859E-05  1.95675809E-03  1.05962283E+00  8.27605519E-01  6.66518466E-01  5.51284627E+01  1.04101948E+00  1.04917544E+00
