 # time mean(w) mean(w**2)
  1.00000000E-03  6.00001514E+00 -3.95860283E-16 -2.86246219E-05  6.65176628E+00  7.99600921E-17  6.57267065E-02 -1.10294922E-22  4.43304334E+01  1.07636327E-07  2.14702907E-07  7.24860135E+01  4.11200179E-16  4.31999995E-03  6.49253248E-25
  2.00000000E-03  6.00003026E+00 -1.57585172E-15 -5.32346447E-05  6.65186078E+00  3.34835444E-16  6.57267065E-02  2.87271217E-22  4.43307877E+01  1.07614185E-07  4.91774592E-07  7.24886280E+01  1.64032289E-15  4.31999995E-03  9.62727034E-24
  3.00000000E-03  6.00004530E+00 -3.47319197E-15 -7.31915832E-05  6.65195509E+00  7.96216476E-16  6.57267065E-02 -6.90805608E-20  4.43311402E+01  1.07590809E-07  8.71169786E-07  7.24912351E+01  3.68098295E-15  4.31999995E-03  4.60503123E-23
  4.00000000E-03  6.00006024E+00 -6.31598362E-15 -8.91255464E-05  6.65204908E+00  1.46057279E-15  6.57267065E-02 -2.76600396E-19  4.43314899E+01  1.07566200E-07  1.30847201E-06  7.24938303E+01  6.52718802E-15  4.31999995E-03  1.37618920E-22
  5.00000000E-03  6.00007506E+00 -9.84107724E-15 -1.01469779E-04  6.65214270E+00  2.33366822E-15  6.57267065E-02 -1.07634332E-18  4.43318364E+01  1.07540359E-07  1.76330406E-06  7.24964113E+01  1.01732923E-14  4.31999995E-03  3.18793746E-22
  6.00000000E-03  6.00008975E+00 -1.32051443E-14 -1.10594570E-04  6.65223596E+00  3.42759418E-15  6.57267065E-02 -3.11934675E-18  4.43321795E+01  1.07513289E-07  2.16487037E-06  7.24989760E+01  1.46139844E-14  4.31999995E-03  6.29793836E-22
  7.00000000E-03  6.00010434E+00 -1.50483512E-14 -1.16943849E-04  6.65232891E+00  4.76003610E-15  6.57267065E-02 -8.07530077E-18  4.43325200E+01  1.07484992E-07  2.54670566E-06  7.25015287E+01  1.98441400E-14  4.31999995E-03  1.11555426E-21
  8.00000000E-03  6.00011882E+00 -1.56140382E-14 -1.20738632E-04  6.65242155E+00  6.33839679E-15  6.57267065E-02 -1.77027023E-17  4.43328578E+01  1.07455470E-07  2.90286149E-06  7.25040684E+01  2.58588941E-14  4.31999995E-03  1.82385101E-21
  9.00000000E-03  6.00013320E+00 -1.51249817E-14 -1.22192128E-04  6.65251385E+00  8.16861792E-15  6.57267065E-02 -3.55129058E-17  4.43331928E+01  1.07424726E-07  3.23079192E-06  7.25065946E+01  3.26535839E-14  4.31999995E-03  2.80322593E-21
  1.00000000E-02  6.00014747E+00 -1.37894570E-14 -1.21505793E-04  6.65260583E+00  1.02569538E-14  6.57267065E-02 -6.52546701E-17  4.43335250E+01  1.07392764E-07  3.53048183E-06  7.25091071E+01  4.02237253E-14  4.31999995E-03  4.10218682E-21
  1.10000000E-02  6.00016164E+00 -1.18003796E-14 -1.18868907E-04  6.65269748E+00  1.26099991E-14  6.57267065E-02 -1.10900657E-16  4.43338544E+01  1.07359587E-07  3.80361337E-06  7.25116059E+01  4.85649938E-14  4.31999995E-03  5.76949402E-21
  1.20000000E-02  6.00017570E+00 -9.33479097E-15 -1.14458397E-04  6.65278880E+00  1.52346840E-14  6.57267065E-02 -1.76038171E-16  4.43341811E+01  1.07325199E-07  4.05292685E-06  7.25140910E+01  5.76732067E-14  4.31999995E-03  7.85327190E-21
  1.30000000E-02  6.00018966E+00 -6.55296762E-15 -1.08438886E-04  6.65287982E+00  1.81377850E-14  6.57267065E-02 -2.64141009E-16  4.43345052E+01  1.07289605E-07  4.28174111E-06  7.25165627E+01  6.75443089E-14  4.31999995E-03  1.03983722E-20
  1.40000000E-02  6.00020353E+00 -3.59757706E-15 -1.00962903E-04  6.65297054E+00  2.13241597E-14  6.57267065E-02 -3.78446096E-16  4.43348268E+01  1.07252809E-07  4.49360194E-06  7.25190215E+01  7.81743593E-14  4.31999995E-03  1.34453123E-20
  1.50000000E-02  6.00021731E+00 -5.97729693E-16 -9.21712205E-05  6.65306099E+00  2.48024501E-14  6.57267065E-02 -5.22184576E-16  4.43351461E+01  1.07214817E-07  4.69203336E-06  7.25214678E+01  8.95595202E-14  4.31999995E-03  1.70303121E-20
  1.60000000E-02  6.00023102E+00  2.33201045E-15 -8.21932796E-05  6.65315117E+00  2.85820397E-14  6.57267065E-02 -6.97797075E-16  4.43354631E+01  1.07175634E-07  4.88036904E-06  7.25239021E+01  1.01696047E-13  4.31999995E-03  2.11860820E-20
  1.70000000E-02  6.00024465E+00  5.09167542E-15 -7.11476966E-05  6.65324111E+00  3.26734074E-14  6.57267065E-02 -9.06810775E-16  4.43357781E+01  1.07135265E-07  5.06164541E-06  7.25263250E+01  1.14580281E-13  4.31999995E-03  2.59417805E-20
  1.80000000E-02  6.00025822E+00  7.59500337E-15 -5.91423644E-05  6.65333082E+00  3.70878820E-14  6.57267065E-02 -1.15029473E-15  4.43360912E+01  1.07093716E-07  5.23852930E-06  7.25287371E+01  1.28208639E-13  4.31999995E-03  3.13240596E-20
  1.90000000E-02  6.00027173E+00  9.77834260E-15 -4.61857980E-05  6.65342033E+00  4.18388405E-14  6.57267065E-02 -1.42958870E-15  4.43364026E+01  1.07050994E-07  5.41062288E-06  7.25311389E+01  1.42577610E-13  4.31999995E-03  3.73558791E-20
  2.00000000E-02  6.00028518E+00  1.17249824E-14 -3.22272190E-05  6.65350965E+00  4.69416659E-14  6.57267065E-02 -1.74528759E-15  4.43367123E+01  1.07007105E-07  5.57594159E-06  7.25335311E+01  1.57683749E-13  4.31999995E-03  4.40568629E-20
  2.10000000E-02  6.00029859E+00  1.35546685E-14 -1.73535670E-05  6.65359880E+00  5.23981138E-14  6.57267065E-02 -2.09721180E-15  4.43370206E+01  1.06962056E-07  5.73687279E-06  7.25359142E+01  1.73523670E-13  4.31999995E-03  5.14432687E-20
  2.20000000E-02  6.00031197E+00  1.53657062E-14 -1.65242936E-06  6.65368780E+00  5.82116842E-14  6.57267065E-02 -2.48362567E-15  4.43373275E+01  1.06915854E-07  5.89558230E-06  7.25382888E+01  1.90094037E-13  4.31999995E-03  5.95281623E-20
  2.30000000E-02  6.00032531E+00  1.72455411E-14  1.47944070E-05  6.65377667E+00  6.43915755E-14  6.57267065E-02 -2.90232122E-15  4.43376333E+01  1.06868508E-07  6.05416730E-06  7.25406556E+01  2.07391576E-13  4.31999995E-03  6.83210095E-20
  2.40000000E-02  6.00033863E+00  1.92664488E-14  3.19108144E-05  6.65386542E+00  7.09530895E-14  6.57267065E-02 -3.35088804E-15  4.43379380E+01  1.06820024E-07  6.21428156E-06  7.25430150E+01  2.25413056E-13  4.31999995E-03  7.78280783E-20
  2.50000000E-02  6.00035193E+00  2.14988979E-14  4.96262028E-05  6.65395408E+00  7.79023321E-14  6.57267065E-02 -3.82672845E-15  4.43382419E+01  1.06770410E-07  6.37727760E-06  7.25453676E+01  2.44155289E-13  4.31999995E-03  8.80505536E-20
  2.60000000E-02  6.00036522E+00  2.39888540E-14  6.78753358E-05  6.65404265E+00  8.52445246E-14  6.57267065E-02 -4.32548626E-15  4.43385450E+01  1.06719676E-07  6.54422853E-06  7.25477140E+01  2.63615130E-13  4.31999995E-03  9.89849961E-20
  2.70000000E-02  6.00037850E+00  2.67653783E-14  8.65981400E-05  6.65413115E+00  9.29928986E-14  6.57267065E-02 -4.84343320E-15  4.43388474E+01  1.06667830E-07  6.71595435E-06  7.25500547E+01  2.83789474E-13  4.31999995E-03  1.10625466E-19
  2.80000000E-02  6.00039178E+00  2.98502407E-14  1.05739507E-04  6.65421960E+00  1.01153165E-13  6.57267065E-02 -5.37596769E-15  4.43391494E+01  1.06614879E-07  6.89305047E-06  7.25523902E+01  3.04675255E-13  4.31999995E-03  1.22963306E-19
  2.90000000E-02  6.00040506E+00  3.32495442E-14  1.25249092E-04  6.65430801E+00  1.09747783E-13  6.57267065E-02 -5.91833676E-15  4.43394509E+01  1.06560835E-07  7.07591696E-06  7.25547209E+01  3.26269440E-13  4.31999995E-03  1.35989050E-19
  3.00000000E-02  6.00041835E+00  3.70285309E-14  1.45081104E-04  6.65439638E+00  1.18773497E-13  6.57267065E-02 -6.46378743E-15  4.43397520E+01  1.06505706E-07  7.26478738E-06  7.25570471E+01  3.48569032E-13  4.31999995E-03  1.49690454E-19
  3.10000000E-02  6.00043165E+00  4.12123180E-14  1.65194092E-04  6.65448474E+00  1.28225747E-13  6.57267065E-02 -7.00767065E-15  4.43400530E+01  1.06449501E-07  7.45975608E-06  7.25593694E+01  3.71571062E-13  4.31999995E-03  1.64053559E-19
  3.20000000E-02  6.00044497E+00  4.58206245E-14  1.85550734E-04  6.65457310E+00  1.38110759E-13  6.57267065E-02 -7.54743898E-15  4.43403537E+01  1.06392231E-07  7.66080386E-06  7.25616880E+01  3.95272590E-13  4.31999995E-03  1.79063652E-19
  3.30000000E-02  6.00045830E+00  5.08903539E-14  2.06117620E-04  6.65466145E+00  1.48442498E-13  6.57267065E-02 -8.07881885E-15  4.43406544E+01  1.06333906E-07  7.86782112E-06  7.25640031E+01  4.19670707E-13  4.31999995E-03  1.94705741E-19
  3.40000000E-02  6.00047166E+00  5.64227575E-14  2.26865036E-04  6.65474980E+00  1.59243852E-13  6.57267065E-02 -8.59428195E-15  4.43409550E+01  1.06274536E-07  8.08062849E-06  7.25663152E+01  4.44762528E-13  4.31999995E-03  2.10965424E-19
  3.50000000E-02  6.00048504E+00  6.23849704E-14  2.47766731E-04  6.65483817E+00  1.70527737E-13  6.57267065E-02 -9.09219908E-15  4.43412557E+01  1.06214132E-07  8.29899486E-06  7.25686244E+01  4.70545193E-13  4.31999995E-03  2.27835251E-19
  3.60000000E-02  6.00049844E+00  6.87974074E-14  2.68799719E-04  6.65492656E+00  1.82278783E-13  6.57267065E-02 -9.57144198E-15  4.43415563E+01  1.06152705E-07  8.52265316E-06  7.25709309E+01  4.97015869E-13  4.31999995E-03  2.45323695E-19
  3.70000000E-02  6.00051187E+00  7.57567475E-14  2.89944055E-04  6.65501497E+00  1.94461522E-13  6.57267065E-02 -1.00167210E-14  4.43418571E+01  1.06090266E-07  8.75131831E-06  7.25732349E+01  5.24171745E-13  4.31999995E-03  2.63459102E-19
  3.80000000E-02  6.00052532E+00  8.32622184E-14  3.11182621E-04  6.65510340E+00  2.07107194E-13  6.57267065E-02 -1.04167068E-14  4.43421580E+01  1.06026827E-07  8.98469475E-06  7.25755364E+01  5.52010031E-13  4.31999995E-03  2.82287850E-19
  3.90000000E-02  6.00053880E+00  9.11804721E-14  3.32500915E-04  6.65519186E+00  2.20282733E-13  6.57267065E-02 -1.07426193E-14  4.43424590E+01  1.05962399E-07  9.22247735E-06  7.25778356E+01  5.80527960E-13  4.31999995E-03  3.01851430E-19
  4.00000000E-02  6.00055231E+00  9.95720207E-14  3.53886839E-04  6.65528036E+00  2.33975305E-13  6.57267065E-02 -1.09630967E-14  4.43427602E+01  1.05896993E-07  9.46436306E-06  7.25801326E+01  6.09722784E-13  4.31999995E-03  3.22198906E-19
  4.10000000E-02  6.00056585E+00  1.08568003E-13  3.75330496E-04  6.65536888E+00  2.48155936E-13  6.57267065E-02 -1.10340666E-14  4.43430614E+01  1.05830622E-07  9.71005677E-06  7.25824274E+01  6.39591775E-13  4.31999995E-03  3.43354895E-19
  4.20000000E-02  6.00057942E+00  1.18257202E-13  3.96823989E-04  6.65545743E+00  2.62820464E-13  6.57267065E-02 -1.09081689E-14  4.43433629E+01  1.05763298E-07  9.95927492E-06  7.25847201E+01  6.70132225E-13  4.31999995E-03  3.65308897E-19
  4.30000000E-02  6.00059302E+00  1.28773755E-13  4.18361228E-04  6.65554601E+00  2.77979605E-13  6.57267065E-02 -1.05296754E-14  4.43436645E+01  1.05695033E-07  1.02117482E-05  7.25870105E+01  7.01341443E-13  4.31999995E-03  3.87992614E-19
  4.40000000E-02  6.00060664E+00  1.40238673E-13  4.39937742E-04  6.65563462E+00  2.93636897E-13  6.57267065E-02 -9.85445484E-15  4.43439662E+01  1.05625839E-07  1.04672232E-05  7.25892988E+01  7.33216758E-13  4.31999995E-03  4.11312407E-19
  4.50000000E-02  6.00062029E+00  1.52610319E-13  4.61550498E-04  6.65572326E+00  3.09865513E-13  6.57267065E-02 -8.82673677E-15  4.43442681E+01  1.05555730E-07  1.07254630E-05  7.25915848E+01  7.65755512E-13  4.31999995E-03  4.35201407E-19
  4.60000000E-02  6.00063397E+00  1.65803962E-13  4.83197733E-04  6.65581193E+00  3.26762609E-13  6.57267065E-02 -7.41789615E-15  4.43445701E+01  1.05484719E-07  1.09862481E-05  7.25938686E+01  7.98955070E-13  4.31999995E-03  4.59644002E-19
  4.70000000E-02  6.00064767E+00  1.79797497E-13  5.04878787E-04  6.65590061E+00  3.44179457E-13  6.57267065E-02 -5.61210175E-15  4.43448721E+01  1.05412818E-07  1.12493755E-05  7.25961500E+01  8.32812808E-13  4.31999995E-03  4.84626366E-19
  4.80000000E-02  6.00066140E+00  1.94603972E-13  5.26593948E-04  6.65598932E+00  3.62102441E-13  6.57267065E-02 -3.40025433E-15  4.43451743E+01  1.05340042E-07  1.15146590E-05  7.25984290E+01  8.67326120E-13  4.31999995E-03  5.10143048E-19
  4.90000000E-02  6.00067515E+00  2.10231039E-13  5.48344305E-04  6.65607805E+00  3.80500636E-13  6.57267065E-02 -7.75225175E-16  4.43454764E+01  1.05266403E-07  1.17819279E-05  7.26007054E+01  9.02492415E-13  4.31999995E-03  5.36189916E-19
  5.00000000E-02  6.00068892E+00  2.26727676E-13  5.70131615E-04  6.65616679E+00  3.99336834E-13  6.57267065E-02  2.25508655E-15  4.43457787E+01  1.05191916E-07  1.20510262E-05  7.26029793E+01  9.38309120E-13  4.31999995E-03  5.62758244E-19
