 # time mean(w) mean(w**2)
  1.00000000E-03  6.00001882E+00 -1.46795873E-08 -2.29459140E-05  6.65178044E+00 -3.10184679E-12  6.57267065E-02  4.43305517E+01  1.07636490E-07  3.11731449E-07  7.24865988E+01  4.18584519E-16  4.31999995E-03
  2.00000000E-03  6.00003737E+00 -4.63663984E-08 -3.29418128E-05  6.65189121E+00 -2.07242515E-11  6.57267065E-02  4.43310452E+01  1.07614854E-07  7.24443255E-07  7.24899405E+01  1.67736614E-15  4.31999995E-03
  3.00000000E-03  6.00005574E+00 -6.00154537E-08 -6.13672813E-05  6.65198961E+00 -8.13278299E-11  6.57267065E-02  4.43314178E+01  1.07592466E-07  1.50626585E-06  7.24925153E+01  3.74963582E-15  4.31999995E-03
  4.00000000E-03  6.00007377E+00 -1.08162267E-07 -6.05560574E-05  6.65209939E+00 -1.77499162E-10  6.57267065E-02  4.43319022E+01  1.07569146E-07  2.04157275E-06  7.24958196E+01  6.68815264E-15  4.31999995E-03
  5.00000000E-03  6.00009171E+00 -1.35419071E-07 -8.00226639E-05  6.65219705E+00 -3.47853361E-10  6.57267065E-02  4.43322679E+01  1.07545068E-07  2.96101392E-06  7.24983654E+01  1.04038850E-14  4.31999995E-03
  6.00000000E-03  6.00010939E+00 -1.95393122E-07 -7.10914679E-05  6.65230626E+00 -5.71006476E-10  6.57267065E-02  4.43327468E+01  1.07520252E-07  3.40373977E-06  7.25016461E+01  1.50482744E-14  4.31999995E-03
  7.00000000E-03  6.00012706E+00 -2.32767575E-07 -8.35108254E-05  6.65240352E+00 -8.76534703E-10  6.57267065E-02  4.43331084E+01  1.07494563E-07  4.29866715E-06  7.25041737E+01  2.04391395E-14  4.31999995E-03
  8.00000000E-03  6.00014450E+00 -3.01384008E-07 -6.82942232E-05  6.65251244E+00 -1.23375951E-09  6.57267065E-02  4.43335841E+01  1.07468312E-07  4.60183737E-06  7.25074402E+01  2.68371931E-14  4.31999995E-03
  9.00000000E-03  6.00016199E+00 -3.46191896E-07 -7.51986054E-05  6.65260950E+00 -1.67433588E-09  6.57267065E-02  4.43339435E+01  1.07440957E-07  5.42670825E-06  7.25099567E+01  3.39367025E-14  4.31999995E-03
  1.00000000E-02  6.00017929E+00 -4.21126939E-07 -5.50474470E-05  6.65271831E+00 -2.15123515E-09  6.57267065E-02  4.43344177E+01  1.07413057E-07  5.60306697E-06  7.25132146E+01  4.20358686E-14  4.31999995E-03
  1.10000000E-02  6.00019667E+00 -4.71363924E-07 -5.76026726E-05  6.65281533E+00 -2.68202089E-09  6.57267065E-02  4.43347760E+01  1.07383808E-07  6.35734807E-06  7.25157243E+01  5.08007283E-14  4.31999995E-03
  1.20000000E-02  6.00021387E+00 -5.50902736E-07 -3.35315512E-05  6.65292413E+00 -3.21822150E-09  6.57267065E-02  4.43352496E+01  1.07354378E-07  6.43785417E-06  7.25189768E+01  6.06648068E-14  4.31999995E-03
  1.30000000E-02  6.00023117E+00 -6.05075305E-07 -3.26222284E-05  6.65302117E+00 -3.80507876E-09  6.57267065E-02  4.43356076E+01  1.07323487E-07  7.13705559E-06  7.25214819E+01  7.11725151E-14  4.31999995E-03
  1.40000000E-02  6.00024831E+00 -6.87943732E-07 -5.39785797E-06  6.65313002E+00 -4.40314255E-09  6.57267065E-02  4.43360810E+01  1.07292597E-07  7.15438388E-06  7.25247304E+01  8.29002314E-14  4.31999995E-03
  1.50000000E-02  6.00026556E+00 -7.44937342E-07 -1.69645110E-06  6.65322712E+00 -5.05762755E-09  6.57267065E-02  4.43364391E+01  1.07260040E-07  7.81705234E-06  7.25272317E+01  9.52041482E-14  4.31999995E-03
  1.60000000E-02  6.00028266E+00 -8.30186418E-07  2.80969695E-05  6.65333604E+00 -5.72793167E-09  6.57267065E-02  4.43369126E+01  1.07227675E-07  7.79873334E-06  7.25304767E+01  1.08872003E-13  4.31999995E-03
  1.70000000E-02  6.00029987E+00 -8.89167106E-07  3.40734526E-05  6.65343322E+00 -6.46004954E-09  6.57267065E-02  4.43372708E+01  1.07193431E-07  8.44071314E-06  7.25329741E+01  1.23039947E-13  4.31999995E-03
  1.80000000E-02  6.00031693E+00 -9.76085229E-07  6.59822714E-05  6.65354221E+00 -7.21424827E-09  6.57267065E-02  4.43377445E+01  1.07159571E-07  8.40725480E-06  7.25362152E+01  1.38728256E-13  4.31999995E-03
  1.90000000E-02  6.00033411E+00 -1.03642475E-06  7.38274526E-05  6.65363945E+00 -8.03499216E-09  6.57267065E-02  4.43381028E+01  1.07123627E-07  9.04014773E-06  7.25387084E+01  1.54830243E-13  4.31999995E-03
  2.00000000E-02  6.00035114E+00 -1.12447393E-06  1.07489157E-04  6.65374850E+00 -8.88151046E-09  6.57267065E-02  4.43385767E+01  1.07088256E-07  9.00578301E-06  7.25419450E+01  1.72621542E-13  4.31999995E-03
  2.10000000E-02  6.00036830E+00 -1.18569700E-06  1.16875000E-04  6.65384580E+00 -9.79772094E-09  6.57267065E-02  4.43389351E+01  1.07050599E-07  9.63745092E-06  7.25444332E+01  1.90729170E-13  4.31999995E-03
  2.20000000E-02  6.00038530E+00 -1.27446848E-06  1.51991437E-04  6.65395490E+00 -1.07415796E-08  6.57267065E-02  4.43394090E+01  1.07013711E-07  9.61167746E-06  7.25476645E+01  2.10702237E-13  4.31999995E-03
  2.30000000E-02  6.00040243E+00 -1.33621479E-06  1.62647535E-04  6.65405223E+00 -1.17576880E-08  6.57267065E-02  4.43397675E+01  1.06974336E-07  1.02472411E-05  7.25501468E+01  2.30879333E-13  4.31999995E-03
  2.40000000E-02  6.00041941E+00 -1.42539676E-06  1.98968922E-04  6.65416136E+00 -1.28026874E-08  6.57267065E-02  4.43402412E+01  1.06935919E-07  1.02362149E-05  7.25533718E+01  2.53100110E-13  4.31999995E-03
  2.50000000E-02  6.00043650E+00 -1.48739563E-06  2.10670647E-04  6.65425871E+00 -1.39218294E-08  6.57267065E-02  4.43405995E+01  1.06894824E-07  1.08789401E-05  7.25558472E+01  2.75395910E-13  4.31999995E-03
  2.60000000E-02  6.00045345E+00 -1.57675329E-06  2.47987088E-04  6.65436784E+00 -1.50703365E-08  6.57267065E-02  4.43410730E+01  1.06854878E-07  1.08864852E-05  7.25590649E+01  2.99924896E-13  4.31999995E-03
  2.70000000E-02  6.00047051E+00 -1.63880518E-06  2.60548982E-04  6.65446518E+00 -1.62947223E-08  6.57267065E-02  4.43414310E+01  1.06812062E-07  1.15384052E-05  7.25615325E+01  3.24390403E-13  4.31999995E-03
  2.80000000E-02  6.00048743E+00 -1.72816455E-06  2.98685900E-04  6.65457429E+00 -1.75488043E-08  6.57267065E-02  4.43419041E+01  1.06770576E-07  1.15666850E-05  7.25647420E+01  3.51289787E-13  4.31999995E-03
  2.90000000E-02  6.00050446E+00 -1.79012514E-06  3.11957278E-04  6.65467160E+00 -1.88801172E-08  6.57267065E-02  4.43422615E+01  1.06726039E-07  1.22289814E-05  7.25672007E+01  3.77989680E-13  4.31999995E-03
  3.00000000E-02  6.00052134E+00 -1.87935952E-06  3.50772107E-04  6.65478066E+00 -2.02408079E-08  6.57267065E-02  4.43427340E+01  1.06683016E-07  1.22789297E-05  7.25704011E+01  4.07297564E-13  4.31999995E-03
  3.10000000E-02  6.00053833E+00 -1.94112968E-06  3.64633044E-04  6.65487792E+00 -2.16797078E-08  6.57267065E-02  4.43430908E+01  1.06636759E-07  1.29521677E-05  7.25728503E+01  4.36293280E-13  4.31999995E-03
  3.20000000E-02  6.00055517E+00 -2.03015232E-06  4.04011895E-04  6.65498693E+00 -2.31472853E-08  6.57267065E-02  4.43435626E+01  1.06592189E-07  1.30238090E-05  7.25760407E+01  4.68035392E-13  4.31999995E-03
  3.30000000E-02  6.00057213E+00 -2.09166723E-06  4.18369020E-04  6.65508412E+00 -2.46935978E-08  6.57267065E-02  4.43439186E+01  1.06544216E-07  1.37081023E-05  7.25784795E+01  4.99359772E-13  4.31999995E-03
  3.40000000E-02  6.00058893E+00 -2.18042061E-06  4.58222883E-04  6.65519305E+00 -2.62672826E-08  6.57267065E-02  4.43443895E+01  1.06498103E-07  1.38008084E-05  7.25816594E+01  5.33564451E-13  4.31999995E-03
  3.50000000E-02  6.00060585E+00 -2.24163913E-06  4.73004879E-04  6.65529015E+00 -2.79199350E-08  6.57267065E-02  4.43447447E+01  1.06448417E-07  1.44959420E-05  7.25840874E+01  5.67252281E-13  4.31999995E-03
  3.60000000E-02  6.00062261E+00 -2.33008622E-06  5.13265449E-04  6.65539899E+00 -2.95981095E-08  6.57267065E-02  4.43452146E+01  1.06400754E-07  1.46086339E-05  7.25872561E+01  6.03945117E-13  4.31999995E-03
  3.70000000E-02  6.00063948E+00 -2.39098554E-06  5.28418513E-04  6.65549600E+00 -3.13552268E-08  6.57267065E-02  4.43455688E+01  1.06349360E-07  1.53141473E-05  7.25896729E+01  6.40025423E-13  4.31999995E-03
  3.80000000E-02  6.00065621E+00 -2.47910575E-06  5.69033928E-04  6.65560474E+00 -3.31361208E-08  6.57267065E-02  4.43460378E+01  1.06300157E-07  1.54454561E-05  7.25928302E+01  6.79221784E-13  4.31999995E-03
  3.90000000E-02  6.00067304E+00 -2.53967541E-06  5.84517537E-04  6.65570165E+00 -3.49958331E-08  6.57267065E-02  4.43463909E+01  1.06247070E-07  1.61607213E-05  7.25952353E+01  7.17714191E-13  4.31999995E-03
  4.00000000E-02  6.00068972E+00 -2.62745924E-06  6.25448470E-04  6.65581029E+00 -3.68776074E-08  6.57267065E-02  4.43468588E+01  1.06196338E-07  1.63091277E-05  7.25983809E+01  7.59420148E-13  4.31999995E-03
  4.10000000E-02  6.00070652E+00 -2.68769796E-06  6.41231816E-04  6.65590709E+00 -3.88378867E-08  6.57267065E-02  4.43472108E+01  1.06141580E-07  1.70334211E-05  7.26007742E+01  8.00335622E-13  4.31999995E-03
  4.20000000E-02  6.00072317E+00 -2.77514432E-06  6.82448202E-04  6.65601562E+00 -4.08183664E-08  6.57267065E-02  4.43476776E+01  1.06089342E-07  1.71973702E-05  7.26039079E+01  8.44550334E-13  4.31999995E-03
  4.30000000E-02  6.00073993E+00 -2.83505524E-06  6.98507512E-04  6.65611231E+00 -4.28767128E-08  6.57267065E-02  4.43480285E+01  1.06032947E-07  1.79299375E-05  7.26062892E+01  8.87894271E-13  4.31999995E-03
  4.40000000E-02  6.00075654E+00 -2.92216722E-06  7.39986041E-04  6.65622073E+00 -4.49532137E-08  6.57267065E-02  4.43484942E+01  1.05979229E-07  1.81079205E-05  7.26094109E+01  9.34611238E-13  4.31999995E-03
  4.50000000E-02  6.00077327E+00 -2.98175796E-06  7.56302371E-04  6.65631731E+00 -4.71069389E-08  6.57267065E-02  4.43488440E+01  1.05921220E-07  1.88480123E-05  7.26117802E+01  9.80382358E-13  4.31999995E-03
  4.60000000E-02  6.00078984E+00 -3.06854289E-06  7.98024379E-04  6.65642562E+00 -4.92767207E-08  6.57267065E-02  4.43493085E+01  1.05866046E-07  1.90386064E-05  7.26148899E+01  1.02959022E-12  4.31999995E-03
  4.70000000E-02  6.00080654E+00 -3.12782129E-06  8.14581939E-04  6.65652209E+00 -5.15229100E-08  6.57267065E-02  4.43496572E+01  1.05806454E-07  1.97854984E-05  7.26172471E+01  1.07778476E-12  4.31999995E-03
  4.80000000E-02  6.00082308E+00 -3.21428636E-06  8.56531866E-04  6.65663028E+00 -5.37829098E-08  6.57267065E-02  4.43501206E+01  1.05749854E-07  1.99873895E-05  7.26203447E+01  1.12946845E-12  4.31999995E-03
  4.90000000E-02  6.00083975E+00 -3.27326144E-06  8.73316907E-04  6.65672663E+00 -5.61184012E-08  6.57267065E-02  4.43504681E+01  1.05688713E-07  2.07403989E-05  7.26226897E+01  1.18008708E-12  4.31999995E-03
  5.00000000E-02  6.00085626E+00 -3.35941578E-06  9.15481249E-04  6.65683471E+00 -5.84653337E-08  6.57267065E-02  4.43509303E+01  1.05630723E-07  2.09523950E-05  7.26257753E+01  1.23422879E-12  4.31999995E-03
