# time mean(w) mean(w**2)
  1.00000000E-03  6.00001687E+00 -3.23498823E-16 -2.67082667E-05  6.65176744E+00  7.29440649E-17  6.57267065E-02  4.43304427E+01  1.07636364E-07  2.04703272E-07  7.24860423E+01  4.16971483E-16  4.31999995E-03
  2.00000000E-03  6.00003372E+00 -9.78194305E-16 -4.81396483E-05  6.65186319E+00  2.99292869E-16  6.57267065E-02  4.43308071E+01  1.07614259E-07  4.34536258E-07  7.24886881E+01  1.66133933E-15  4.31999995E-03
  3.00000000E-03  6.00005053E+00 -1.88508876E-15 -6.48130247E-05  6.65195889E+00  6.90311844E-16  6.57267065E-02  4.43311707E+01  1.07590920E-07  7.29353510E-07  7.24913320E+01  3.72408329E-15  4.31999995E-03
  4.00000000E-03  6.00006729E+00 -3.19185054E-15 -7.72030391E-05  6.65205449E+00  1.25707283E-15  6.57267065E-02  4.43315334E+01  1.07566347E-07  1.04561480E-06  7.24939722E+01  6.59710908E-15  4.31999995E-03
  5.00000000E-03  6.00008393E+00 -5.32666269E-15 -8.57620404E-05  6.65214996E+00  2.01092864E-15  6.57267065E-02  4.43318947E+01  1.07540543E-07  1.35665046E-06  7.24966072E+01  1.02730609E-14  4.31999995E-03
  6.00000000E-03  6.00010044E+00 -8.06474751E-15 -9.08814267E-05  6.65224526E+00  2.96549085E-15  6.57267065E-02  4.43322545E+01  1.07513509E-07  1.64721270E-06  7.24992357E+01  1.47451726E-14  4.31999995E-03
  7.00000000E-03  6.00011681E+00 -1.14693095E-14 -9.29121461E-05  6.65234038E+00  4.13837803E-15  6.57267065E-02  4.43326126E+01  1.07485248E-07  1.90987788E-06  7.25018571E+01  2.00071595E-14  4.31999995E-03
  8.00000000E-03  6.00013304E+00 -1.56103384E-14 -9.21731962E-05  6.65243530E+00  5.55381507E-15  6.57267065E-02  4.43329691E+01  1.07455762E-07  2.14242858E-06  7.25044706E+01  2.60531347E-14  4.31999995E-03
  9.00000000E-03  6.00014915E+00 -2.06545664E-14 -8.89541258E-05  6.65253004E+00  7.23881353E-15  6.57267065E-02  4.43333238E+01  1.07425054E-07  2.34590081E-06  7.25070761E+01  3.28775431E-14  4.31999995E-03
  1.00000000E-02  6.00016514E+00 -2.68071110E-14 -8.35170749E-05  6.65262458E+00  9.20399053E-15  6.57267065E-02  4.43336768E+01  1.07393128E-07  2.52339738E-06  7.25096731E+01  4.04751110E-14  4.31999995E-03
  1.10000000E-02  6.00018101E+00 -3.40287152E-14 -7.60987733E-05  6.65271894E+00  1.14658066E-14  6.57267065E-02  4.43340282E+01  1.07359987E-07  2.67919602E-06  7.25122618E+01  4.88408035E-14  4.31999995E-03
  1.20000000E-02  6.00019677E+00 -4.22832703E-14 -6.69127606E-05  6.65281311E+00  1.40375599E-14  6.57267065E-02  4.43343781E+01  1.07325635E-07  2.81794407E-06  7.25148422E+01  5.79698084E-14  4.31999995E-03
  1.30000000E-02  6.00021243E+00 -5.15570524E-14 -5.61515688E-05  6.65290711E+00  1.69263018E-14  6.57267065E-02  4.43347264E+01  1.07290078E-07  2.94420420E-06  7.25174144E+01  6.78578766E-14  4.31999995E-03
  1.40000000E-02  6.00022799E+00 -6.18458147E-14 -4.39886679E-05  6.65300095E+00  2.02395308E-14  6.57267065E-02  4.43350733E+01  1.07253318E-07  3.06227134E-06  7.25199785E+01  7.85009088E-14  4.31999995E-03
  1.50000000E-02  6.00024346E+00 -7.31387697E-14 -3.05801627E-05  6.65309463E+00  2.40488417E-14  6.57267065E-02  4.43354188E+01  1.07215362E-07  3.17604123E-06  7.25225349E+01  8.98947590E-14  4.31999995E-03
  1.60000000E-02  6.00025884E+00 -8.54148837E-14 -1.60663195E-05  6.65318817E+00  2.82652300E-14  6.57267065E-02  4.43357631E+01  1.07176215E-07  3.28890935E-06  7.25250836E+01  1.02035436E-13  4.31999995E-03
  1.70000000E-02  6.00027415E+00 -9.86482127E-14 -5.72962008E-07  6.65328157E+00  3.31552017E-14  6.57267065E-02  4.43361062E+01  1.07135882E-07  3.40374574E-06  7.25276251E+01  1.14919469E-13  4.31999995E-03
  1.80000000E-02  6.00028939E+00 -1.12831280E-13  1.57872478E-05  6.65337485E+00  3.76656330E-14  6.57267065E-02  4.43364483E+01  1.07094369E-07  3.52290259E-06  7.25301596E+01  1.28544194E-13  4.31999995E-03
  1.90000000E-02  6.00030457E+00 -1.27936448E-13  3.29136375E-05  6.65346801E+00  4.15303418E-14  6.57267065E-02  4.43367893E+01  1.07051683E-07  3.64824450E-06  7.25326873E+01  1.42906332E-13  4.31999995E-03
  2.00000000E-02  6.00031968E+00 -1.43926438E-13  5.07164386E-05  6.65356108E+00  4.48811554E-14  6.57267065E-02  4.43371294E+01  1.07007831E-07  3.78120426E-06  7.25352084E+01  1.58002651E-13  4.31999995E-03
  2.10000000E-02  6.00033474E+00 -1.60764491E-13  6.91157937E-05  6.65365404E+00  4.79848611E-14  6.57267065E-02  4.43374687E+01  1.06962819E-07  3.92283383E-06  7.25377234E+01  1.73829997E-13  4.31999995E-03
  2.20000000E-02  6.00034975E+00 -1.78414137E-13  8.80408437E-05  6.65374693E+00  5.11622898E-14  6.57267065E-02  4.43378071E+01  1.06916654E-07  4.07383726E-06  7.25402323E+01  1.90385288E-13  4.31999995E-03
  2.30000000E-02  6.00036472E+00 -1.96837261E-13  1.07428888E-04  6.65383973E+00  5.46914028E-14  6.57267065E-02  4.43381449E+01  1.06869345E-07  4.23460670E-06  7.25427355E+01  2.07665521E-13  4.31999995E-03
  2.40000000E-02  6.00037965E+00 -2.15974676E-13  1.27224610E-04  6.65393246E+00  5.88093680E-14  6.57267065E-02  4.43384820E+01  1.06820898E-07  4.40528612E-06  7.25452332E+01  2.25667784E-13  4.31999995E-03
  2.50000000E-02  6.00039454E+00 -2.35785752E-13  1.47379361E-04  6.65402513E+00  6.37302180E-14  6.57267065E-02  4.43388186E+01  1.06771322E-07  4.58585082E-06  7.25477256E+01  2.44389191E-13  4.31999995E-03
  2.60000000E-02  6.00040940E+00 -2.56246476E-13  1.67850497E-04  6.65411774E+00  6.95824101E-14  6.57267065E-02  4.43391546E+01  1.06720626E-07  4.77614100E-06  7.25502128E+01  2.63826751E-13  4.31999995E-03
  2.70000000E-02  6.00042423E+00 -2.77336015E-13  1.88600787E-04  6.65421031E+00  7.64582769E-14  6.57267065E-02  4.43394900E+01  1.06668817E-07  4.97588983E-06  7.25526951E+01  2.83977539E-13  4.31999995E-03
  2.80000000E-02  6.00043903E+00 -2.99031362E-13  2.09597854E-04  6.65430282E+00  8.44379631E-14  6.57267065E-02  4.43398251E+01  1.06615906E-07  5.18474426E-06  7.25551726E+01  3.04838713E-13  4.31999995E-03
  2.90000000E-02  6.00045381E+00 -3.21264142E-13  2.30813680E-04  6.65439529E+00  9.35292371E-14  6.57267065E-02  4.43401596E+01  1.06561900E-07  5.40228536E-06  7.25576454E+01  3.26407474E-13  4.31999995E-03
  3.00000000E-02  6.00046857E+00 -3.43994414E-13  2.52224141E-04  6.65448772E+00  1.03760732E-13  6.57267065E-02  4.43404938E+01  1.06506810E-07  5.62805266E-06  7.25601136E+01  3.48681059E-13  4.31999995E-03
  3.10000000E-02  6.00048331E+00 -3.67213516E-13  2.73808571E-04  6.65458011E+00  1.15140873E-13  6.57267065E-02  4.43408276E+01  1.06450645E-07  5.86157003E-06  7.25625774E+01  3.71656738E-13  4.31999995E-03
  3.20000000E-02  6.00049804E+00 -3.90969470E-13  2.95549371E-04  6.65467248E+00  1.27707254E-13  6.57267065E-02  4.43411611E+01  1.06393416E-07  6.10236658E-06  7.25650368E+01  3.95331811E-13  4.31999995E-03
  3.30000000E-02  6.00051274E+00 -4.15257943E-13  3.17431660E-04  6.65476480E+00  1.41470706E-13  6.57267065E-02  4.43414942E+01  1.06335132E-07  6.34997446E-06  7.25674919E+01  4.19703607E-13  4.31999995E-03
  3.40000000E-02  6.00052744E+00 -4.40066223E-13  3.39442967E-04  6.65485710E+00  1.56446194E-13  6.57267065E-02  4.43418270E+01  1.06275804E-07  6.60394044E-06  7.25699427E+01  4.44769481E-13  4.31999995E-03
  3.50000000E-02  6.00054212E+00 -4.65386640E-13  3.61572925E-04  6.65494937E+00  1.72541776E-13  6.57267065E-02  4.43421595E+01  1.06215443E-07  6.86383284E-06  7.25723894E+01  4.70526810E-13  4.31999995E-03
  3.60000000E-02  6.00055678E+00 -4.91210583E-13  3.83813017E-04  6.65504162E+00  1.89564406E-13  6.57267065E-02  4.43424917E+01  1.06154060E-07  7.12924459E-06  7.25748318E+01  4.96972888E-13  4.31999995E-03
  3.70000000E-02  6.00057144E+00 -5.17528543E-13  4.06156324E-04  6.65513383E+00  2.07180906E-13  6.57267065E-02  4.43428236E+01  1.06091666E-07  7.39978364E-06  7.25772700E+01  5.24104473E-13  4.31999995E-03
  3.80000000E-02  6.00058609E+00 -5.44294906E-13  4.28597294E-04  6.65522602E+00  2.25010814E-13  6.57267065E-02  4.43431551E+01  1.06028272E-07  7.67506283E-06  7.25797041E+01  5.51918836E-13  4.31999995E-03
  3.90000000E-02  6.00060072E+00 -5.71360450E-13  4.51131589E-04  6.65531819E+00  2.42511581E-13  6.57267065E-02  4.43434864E+01  1.05963890E-07  7.95466853E-06  7.25821340E+01  5.80413177E-13  4.31999995E-03
  4.00000000E-02  6.00061535E+00 -5.98672592E-13  4.73756090E-04  6.65541032E+00  2.59187965E-13  6.57267065E-02  4.43438174E+01  1.05898532E-07  8.23829672E-06  7.25845599E+01  6.09584598E-13  4.31999995E-03
  4.10000000E-02  6.00062997E+00 -6.26314042E-13  4.96468922E-04  6.65550243E+00  2.74766249E-13  6.57267065E-02  4.43441480E+01  1.05832210E-07  8.52578236E-06  7.25869816E+01  6.39430261E-13  4.31999995E-03
  4.20000000E-02  6.00064458E+00 -6.54342118E-13  5.19269258E-04  6.65559451E+00  2.88701332E-13  6.57267065E-02  4.43444784E+01  1.05764937E-07  8.81696632E-06  7.25893992E+01  6.69947402E-13  4.31999995E-03
  4.30000000E-02  6.00065919E+00 -6.82800347E-13  5.42157073E-04  6.65568657E+00  3.00827167E-13  6.57267065E-02  4.43448085E+01  1.05696725E-07  9.11168713E-06  7.25918126E+01  7.01133306E-13  4.31999995E-03
  4.40000000E-02  6.00067378E+00 -7.11722167E-13  5.65132933E-04  6.65577860E+00  3.11720699E-13  6.57267065E-02  4.43451382E+01  1.05627586E-07  9.40963326E-06  7.25942218E+01  7.32985293E-13  4.31999995E-03
  4.50000000E-02  6.00068837E+00 -7.41136893E-13  5.88197804E-04  6.65587060E+00  3.22311365E-13  6.57267065E-02  4.43454676E+01  1.05557535E-07  9.71056384E-06  7.25966267E+01  7.65500720E-13  4.31999995E-03
  4.60000000E-02  6.00070296E+00 -7.71061225E-13  6.11352875E-04  6.65596256E+00  3.32887868E-13  6.57267065E-02  4.43457967E+01  1.05486583E-07  1.00143660E-05  7.25990273E+01  7.98676971E-13  4.31999995E-03
  4.70000000E-02  6.00071753E+00 -8.01500341E-13  6.34599401E-04  6.65605450E+00  3.43666739E-13  6.57267065E-02  4.43461255E+01  1.05414745E-07  1.03209149E-05  7.26014236E+01  8.32511457E-13  4.31999995E-03
  4.80000000E-02  6.00073210E+00 -8.32450663E-13  6.57938589E-04  6.65614641E+00  3.54781077E-13  6.57267065E-02  4.43464539E+01  1.05342033E-07  1.06300882E-05  7.26038155E+01  8.67001616E-13  4.31999995E-03
  4.90000000E-02  6.00074666E+00 -8.63902835E-13  6.81371507E-04  6.65623828E+00  3.66231809E-13  6.57267065E-02  4.43467819E+01  1.05268462E-07  1.09417655E-05  7.26062029E+01  9.02144901E-13  4.31999995E-03
  5.00000000E-02  6.00076122E+00 -8.95839401E-13  7.04899012E-04  6.65633012E+00  3.78061854E-13  6.57267065E-02  4.43471095E+01  1.05194046E-07  1.12558267E-05  7.26085860E+01  9.37938789E-13  4.31999995E-03
