 # time mean(w) mean(w**2)
  1.00000000E-03  6.00001882E+00 -1.46796559E-08 -2.29471694E-05  6.65178099E+00 -3.09878814E-12  6.57267065E-02  4.43305517E+01  1.07636490E-07  3.11743286E-07  7.24866124E+01  4.18584866E-16  4.31999995E-03
  2.00000000E-03  6.00003737E+00 -4.63673025E-08 -3.29582799E-05  6.65189223E+00 -2.07201443E-11  6.57267065E-02  4.43310452E+01  1.07614854E-07  7.24699397E-07  7.24899653E+01  1.67736307E-15  4.31999995E-03
  3.00000000E-03  6.00005575E+00 -6.00169528E-08 -6.14224314E-05  6.65199104E+00 -8.13224567E-11  6.57267065E-02  4.43314179E+01  1.07592467E-07  1.50764625E-06  7.24925491E+01  3.74966166E-15  4.31999995E-03
  4.00000000E-03  6.00007378E+00 -1.08175208E-07 -6.06701970E-05  6.65210118E+00 -1.77376578E-10  6.57267065E-02  4.43319024E+01  1.07569148E-07  2.04473097E-06  7.24958610E+01  6.68819291E-15  4.31999995E-03
  5.00000000E-03  6.00009173E+00 -1.35450702E-07 -8.02142045E-05  6.65219919E+00 -3.47630032E-10  6.57267065E-02  4.43322683E+01  1.07545075E-07  2.96756308E-06  7.24984135E+01  1.04040644E-14  4.31999995E-03
  6.00000000E-03  6.00010942E+00 -1.95460184E-07 -7.13697573E-05  6.65230873E+00 -5.70531262E-10  6.57267065E-02  4.43327474E+01  1.07520267E-07  3.41351746E-06  7.25017008E+01  1.50486538E-14  4.31999995E-03
  7.00000000E-03  6.00012712E+00 -2.32883058E-07 -8.38779689E-05  6.65240632E+00 -8.75682150E-10  6.57267065E-02  4.43331095E+01  1.07494588E-07  4.31337259E-06  7.25042352E+01  2.04399651E-14  4.31999995E-03
  8.00000000E-03  6.00014460E+00 -3.01564638E-07 -6.87461051E-05  6.65251559E+00 -1.23235290E-09  6.57267065E-02  4.43335859E+01  1.07468350E-07  4.61982568E-06  7.25075091E+01  2.68385698E-14  4.31999995E-03
  9.00000000E-03  6.00016213E+00 -3.46452613E-07 -7.57209801E-05  6.65261303E+00 -1.67243084E-09  6.57267065E-02  4.43339461E+01  1.07441001E-07  5.44954918E-06  7.25100341E+01  3.39391659E-14  4.31999995E-03
  1.00000000E-02  6.00017948E+00 -4.21479868E-07 -5.56256928E-05  6.65272225E+00 -2.14869121E-09  6.57267065E-02  4.43344213E+01  1.07413114E-07  5.62781452E-06  7.25133017E+01  4.20394089E-14  4.31999995E-03
  1.10000000E-02  6.00019691E+00 -4.71822369E-07 -5.82101695E-05  6.65281970E+00 -2.67871261E-09  6.57267065E-02  4.43347810E+01  1.07383872E-07  6.38559743E-06  7.25158224E+01  5.08063453E-14  4.31999995E-03
  1.20000000E-02  6.00021419E+00 -5.51471590E-07 -3.41473395E-05  6.65292899E+00 -3.21388323E-09  6.57267065E-02  4.43352560E+01  1.07354456E-07  6.46602293E-06  7.25190875E+01  6.06725725E-14  4.31999995E-03
  1.30000000E-02  6.00023157E+00 -6.05764819E-07 -3.32120589E-05  6.65302655E+00 -3.79972282E-09  6.57267065E-02  4.43356158E+01  1.07323571E-07  7.16696790E-06  7.25216065E+01  7.11830923E-14  4.31999995E-03
  1.40000000E-02  6.00024881E+00 -6.88751113E-07 -5.93797676E-06  6.65313597E+00 -4.39662075E-09  6.57267065E-02  4.43360911E+01  1.07292692E-07  7.18247059E-06  7.25248707E+01  8.29139149E-14  4.31999995E-03
  1.50000000E-02  6.00026615E+00 -7.45868272E-07 -2.14959096E-06  6.65323368E+00 -5.04981499E-09  6.57267065E-02  4.43364513E+01  1.07260133E-07  7.84534069E-06  7.25273890E+01  9.52217270E-14  4.31999995E-03
  1.60000000E-02  6.00028336E+00 -8.31231031E-07  2.77547812E-05  6.65334324E+00 -5.71879813E-09  6.57267065E-02  4.43369271E+01  1.07227770E-07  7.82407179E-06  7.25306525E+01  1.08893891E-13  4.31999995E-03
  1.70000000E-02  6.00030068E+00 -8.90325341E-07  3.38780638E-05  6.65344110E+00 -6.44957511E-09  6.57267065E-02  4.43372878E+01  1.07193516E-07  8.46508173E-06  7.25331698E+01  1.23066580E-13  4.31999995E-03
  1.80000000E-02  6.00031787E+00 -9.77341714E-07  6.59560355E-05  6.65355081E+00 -7.20240649E-09  6.57267065E-02  4.43377641E+01  1.07159655E-07  8.42815078E-06  7.25364323E+01  1.38759695E-13  4.31999995E-03
  1.90000000E-02  6.00033518E+00 -1.03777277E-06  7.40007270E-05  6.65364880E+00 -8.02164753E-09  6.57267065E-02  4.43381252E+01  1.07123696E-07  9.05918489E-06  7.25389478E+01  1.54867023E-13  4.31999995E-03
  2.00000000E-02  6.00035235E+00 -1.12589439E-06  1.07881356E-04  6.65375865E+00 -8.86665504E-09  6.57267065E-02  4.43386020E+01  1.07088324E-07  9.02130117E-06  7.25422082E+01  1.72664276E-13  4.31999995E-03
  2.10000000E-02  6.00036964E+00 -1.18717577E-06  1.17507738E-04  6.65385676E+00 -9.78138152E-09  6.57267065E-02  4.43389634E+01  1.07050656E-07  9.65042619E-06  7.25447209E+01  1.90777314E-13  4.31999995E-03
  2.20000000E-02  6.00038680E+00 -1.27598477E-06  1.52880336E-04  6.65396670E+00 -1.07236551E-08  6.57267065E-02  4.43394404E+01  1.07013768E-07  9.62149171E-06  7.25479779E+01  2.10756232E-13  4.31999995E-03
  2.30000000E-02  6.00040407E+00 -1.33774748E-06  1.63803555E-04  6.65406490E+00 -1.17381142E-08  6.57267065E-02  4.43398020E+01  1.06974385E-07  1.02540267E-05  7.25504865E+01  2.30938336E-13  4.31999995E-03
  2.40000000E-02  6.00042120E+00 -1.42692531E-06  2.00403487E-04  6.65417491E+00 -1.27814172E-08  6.57267065E-02  4.43402790E+01  1.06935973E-07  1.02405607E-05  7.25537388E+01  2.53165481E-13  4.31999995E-03
  2.50000000E-02  6.00043845E+00 -1.48889267E-06  2.12383788E-04  6.65427316E+00 -1.38989518E-08  6.57267065E-02  4.43406406E+01  1.06894866E-07  1.08799869E-05  7.25562418E+01  2.75465152E-13  4.31999995E-03
  2.60000000E-02  6.00045555E+00 -1.57819985E-06  2.49986077E-04  6.65438321E+00 -1.50459244E-08  6.57267065E-02  4.43411174E+01  1.06854918E-07  1.08861217E-05  7.25594879E+01  3.00000126E-13  4.31999995E-03
  2.70000000E-02  6.00047276E+00 -1.64016968E-06  2.62824190E-04  6.65448147E+00 -1.62688605E-08  6.57267065E-02  4.43414786E+01  1.06812087E-07  1.15346962E-05  7.25619839E+01  3.24468193E-13  4.31999995E-03
  2.80000000E-02  6.00048983E+00 -1.72943079E-06  3.01240854E-04  6.65459152E+00 -1.75215707E-08  6.57267065E-02  4.43419549E+01  1.06770596E-07  1.15628279E-05  7.25652223E+01  3.51372811E-13  4.31999995E-03
  2.90000000E-02  6.00050701E+00 -1.79126040E-06  3.14775100E-04  6.65468977E+00 -1.88516205E-08  6.57267065E-02  4.43423156E+01  1.06726041E-07  1.22219557E-05  7.25677100E+01  3.78073802E-13  4.31999995E-03
  3.00000000E-02  6.00052404E+00 -1.88035131E-06  3.53853222E-04  6.65479978E+00 -2.02111626E-08  6.57267065E-02  4.43427913E+01  1.06683008E-07  1.22731659E-05  7.25709395E+01  4.07385931E-13  4.31999995E-03
  3.10000000E-02  6.00054118E+00 -1.94194528E-06  3.67956287E-04  6.65489798E+00 -2.16490327E-08  6.57267065E-02  4.43431512E+01  1.06636735E-07  1.29436199E-05  7.25734176E+01  4.36382048E-13  4.31999995E-03
  3.20000000E-02  6.00055816E+00 -2.03078263E-06  4.07575312E-04  6.65500793E+00 -2.31156330E-08  6.57267065E-02  4.43436260E+01  1.06592159E-07  1.30179908E-05  7.25766371E+01  4.68127822E-13  4.31999995E-03
  3.30000000E-02  6.00057525E+00 -2.09208271E-06  4.22150091E-04  6.65510605E+00 -2.46611450E-08  6.57267065E-02  4.43439849E+01  1.06544170E-07  1.37000562E-05  7.25791047E+01  4.99451315E-13  4.31999995E-03
  3.40000000E-02  6.00059219E+00 -2.18061563E-06  4.62217961E-04  6.65521591E+00 -2.62341976E-08  6.57267065E-02  4.43444588E+01  1.06498043E-07  1.37969262E-05  7.25823133E+01  5.33659100E-13  4.31999995E-03
  3.50000000E-02  6.00060923E+00 -2.24158902E-06  4.77192535E-04  6.65531394E+00 -2.78863692E-08  6.57267065E-02  4.43448166E+01  1.06448336E-07  1.44905059E-05  7.25847695E+01  5.67345786E-13  4.31999995E-03
  3.60000000E-02  6.00062612E+00 -2.32978838E-06  5.17640907E-04  6.65542370E+00 -2.95642379E-08  6.57267065E-02  4.43452893E+01  1.06400658E-07  1.46086844E-05  7.25879664E+01  6.04041314E-13  4.31999995E-03
  3.70000000E-02  6.00064311E+00 -2.39042023E-06  5.32963174E-04  6.65552161E+00 -3.13212228E-08  6.57267065E-02  4.43456460E+01  1.06349243E-07  1.53133759E-05  7.25904107E+01  6.40120559E-13  4.31999995E-03
  3.80000000E-02  6.00065995E+00 -2.47827246E-06  5.73742284E-04  6.65563125E+00 -3.31021839E-08  6.57267065E-02  4.43461174E+01  1.06300020E-07  1.54513216E-05  7.25935954E+01  6.79319354E-13  4.31999995E-03
  3.90000000E-02  6.00067689E+00 -2.53855999E-06  5.89374838E-04  6.65572905E+00 -3.49621521E-08  6.57267065E-02  4.43464728E+01  1.06246917E-07  1.61664967E-05  7.25960274E+01  7.17811383E-13  4.31999995E-03
  4.00000000E-02  6.00069367E+00 -2.62606266E-06  6.30448731E-04  6.65583856E+00 -3.68442879E-08  6.57267065E-02  4.43469429E+01  1.06196172E-07  1.63224812E-05  7.25991995E+01  7.59519109E-13  4.31999995E-03
  4.10000000E-02  6.00071057E+00 -2.68601075E-06  6.46364581E-04  6.65593622E+00 -3.88050099E-08  6.57267065E-02  4.43472970E+01  1.06141404E-07  1.70473718E-05  7.26016188E+01  8.00434907E-13  4.31999995E-03
  4.20000000E-02  6.00072730E+00 -2.77316838E-06  6.87707123E-04  6.65604560E+00 -4.07860735E-08  6.57267065E-02  4.43477657E+01  1.06089153E-07  1.72196218E-05  7.26047782E+01  8.44651451E-13  4.31999995E-03
  4.30000000E-02  6.00074415E+00 -2.83278620E-06  7.03886315E-04  6.65614313E+00 -4.28452177E-08  6.57267065E-02  4.43481184E+01  1.06032741E-07  1.79533984E-05  7.26071846E+01  8.87996273E-13  4.31999995E-03
  4.40000000E-02  6.00076083E+00 -2.91960727E-06  7.45478023E-04  6.65625238E+00 -4.49227458E-08  6.57267065E-02  4.43485858E+01  1.05979004E-07  1.81401910E-05  7.26103312E+01  9.34714816E-13  4.31999995E-03
  4.50000000E-02  6.00077763E+00 -2.97890610E-06  7.61905013E-04  6.65634977E+00 -4.70776756E-08  6.57267065E-02  4.43489371E+01  1.05920975E-07  1.88820111E-05  7.26127246E+01  9.80487735E-13  4.31999995E-03
  4.60000000E-02  6.00079427E+00 -3.06540109E-06  8.03730563E-04  6.65645888E+00 -4.92488821E-08  6.57267065E-02  4.43494031E+01  1.05865776E-07  1.90817282E-05  7.26158582E+01  1.02969668E-12  4.31999995E-03
  4.70000000E-02  6.00081102E+00 -3.12439259E-06  8.20392324E-04  6.65655613E+00 -5.14966594E-08  6.57267065E-02  4.43497530E+01  1.05806164E-07  1.98307705E-05  7.26182387E+01  1.07789385E-12  4.31999995E-03
  4.80000000E-02  6.00082762E+00 -3.21057260E-06  8.62438827E-04  6.65666510E+00 -5.37584642E-08  6.57267065E-02  4.43502176E+01  1.05749536E-07  2.00419315E-05  7.26213592E+01  1.12957802E-12  4.31999995E-03
  4.90000000E-02  6.00084433E+00 -3.26926785E-06  8.79323639E-04  6.65676222E+00 -5.60959097E-08  6.57267065E-02  4.43505662E+01  1.05688376E-07  2.07974216E-05  7.26237267E+01  1.18019983E-12  4.31999995E-03
  5.00000000E-02  6.00086089E+00 -3.35514355E-06  9.21579516E-04  6.65687105E+00 -5.84449978E-08  6.57267065E-02  4.43510293E+01  1.05630358E-07  2.10186988E-05  7.26268343E+01  1.23434089E-12  4.31999995E-03
