 # time mean(w) mean(w**2)
  1.00000000E-03  6.00001882E+00 -1.46795873E-08 -2.29459098E-05  6.65178104E+00 -3.10253971E-12  6.57267065E-02  4.43305517E+01  1.07636490E-07  3.11729318E-07  7.24866135E+01  4.18584685E-16  4.31999995E-03
  2.00000000E-03  6.00003737E+00 -4.63663983E-08 -3.29417850E-05  6.65189238E+00 -2.07269238E-11  6.57267065E-02  4.43310452E+01  1.07614854E-07  7.24427991E-07  7.24899695E+01  1.67736669E-15  4.31999995E-03
  3.00000000E-03  6.00005574E+00 -6.00154543E-08 -6.13671558E-05  6.65199135E+00 -8.13327256E-11  6.57267065E-02  4.43314178E+01  1.07592466E-07  1.50622131E-06  7.24925582E+01  3.74963620E-15  4.31999995E-03
  4.00000000E-03  6.00007377E+00 -1.08162269E-07 -6.05557981E-05  6.65210168E+00 -1.77500980E-10  6.57267065E-02  4.43319022E+01  1.07569146E-07  2.04148033E-06  7.24958762E+01  6.68815610E-15  4.31999995E-03
  5.00000000E-03  6.00009171E+00 -1.35419077E-07 -8.00221296E-05  6.65219988E+00 -3.47854643E-10  6.57267065E-02  4.43322679E+01  1.07545069E-07  2.96085603E-06  7.24984354E+01  1.04038837E-14  4.31999995E-03
  6.00000000E-03  6.00010939E+00 -1.95393133E-07 -7.10906013E-05  6.65230962E+00 -5.71007246E-10  6.57267065E-02  4.43327468E+01  1.07520253E-07  3.40349983E-06  7.25017292E+01  1.50482781E-14  4.31999995E-03
  7.00000000E-03  6.00012706E+00 -2.32767581E-07 -8.35094203E-05  6.65240738E+00 -8.76536208E-10  6.57267065E-02  4.43331084E+01  1.07494566E-07  4.29833140E-06  7.25042696E+01  2.04391251E-14  4.31999995E-03
  8.00000000E-03  6.00014450E+00 -3.01384013E-07 -6.82922038E-05  6.65251681E+00 -1.23375755E-09  6.57267065E-02  4.43335841E+01  1.07468316E-07  4.60139459E-06  7.25075487E+01  2.68371811E-14  4.31999995E-03
  9.00000000E-03  6.00016199E+00 -3.46191916E-07 -7.51957173E-05  6.65261437E+00 -1.67433691E-09  6.57267065E-02  4.43339435E+01  1.07440961E-07  5.42615078E-06  7.25100777E+01  3.39366501E-14  4.31999995E-03
  1.00000000E-02  6.00017929E+00 -4.21126986E-07 -5.50436026E-05  6.65272367E+00 -2.15123656E-09  6.57267065E-02  4.43344176E+01  1.07413062E-07  5.60238829E-06  7.25133479E+01  4.20358073E-14  4.31999995E-03
  1.10000000E-02  6.00019667E+00 -4.71363967E-07 -5.75975857E-05  6.65282116E+00 -2.68201916E-09  6.57267065E-02  4.43347760E+01  1.07383814E-07  6.35654744E-06  7.25158697E+01  5.08005991E-14  4.31999995E-03
  1.20000000E-02  6.00021387E+00 -5.50902758E-07 -3.35251298E-05  6.65293044E+00 -3.21821763E-09  6.57267065E-02  4.43352495E+01  1.07354384E-07  6.43692750E-06  7.25191342E+01  6.06648186E-14  4.31999995E-03
  1.30000000E-02  6.00023117E+00 -6.05075318E-07 -3.26141706E-05  6.65302795E+00 -3.80518402E-09  6.57267065E-02  4.43356076E+01  1.07323491E-07  7.13600970E-06  7.25216512E+01  7.11724125E-14  4.31999995E-03
  1.40000000E-02  6.00024831E+00 -6.87943755E-07 -5.38807535E-06  6.65313726E+00 -4.40333378E-09  6.57267065E-02  4.43360810E+01  1.07292598E-07  7.15321435E-06  7.25249115E+01  8.28999958E-14  4.31999995E-03
  1.50000000E-02  6.00026556E+00 -7.44937358E-07 -1.68464116E-06  6.65323482E+00 -5.05788581E-09  6.57267065E-02  4.43364390E+01  1.07260040E-07  7.81577434E-06  7.25274244E+01  9.52038359E-14  4.31999995E-03
  1.60000000E-02  6.00028266E+00 -8.30186419E-07  2.81108858E-05  6.65334420E+00 -5.72825517E-09  6.57267065E-02  4.43369125E+01  1.07227673E-07  7.79733918E-06  7.25306809E+01  1.08871592E-13  4.31999995E-03
  1.70000000E-02  6.00029987E+00 -8.89167106E-07  3.40897780E-05  6.65344182E+00 -6.46044110E-09  6.57267065E-02  4.43372707E+01  1.07193429E-07  8.43922157E-06  7.25331898E+01  1.23039465E-13  4.31999995E-03
  1.80000000E-02  6.00031693E+00 -9.76085231E-07  6.60010785E-05  6.65355125E+00 -7.21470903E-09  6.57267065E-02  4.43377444E+01  1.07159567E-07  8.40565779E-06  7.25364423E+01  1.38727697E-13  4.31999995E-03
  1.90000000E-02  6.00033411E+00 -1.03642484E-06  7.38490394E-05  6.65364894E+00 -8.03551978E-09  6.57267065E-02  4.43381028E+01  1.07123622E-07  9.03846629E-06  7.25389468E+01  1.54829615E-13  4.31999995E-03
  2.00000000E-02  6.00035114E+00 -1.12447415E-06  1.07513589E-04  6.65375843E+00 -8.88210637E-09  6.57267065E-02  4.43385766E+01  1.07088249E-07  9.00400797E-06  7.25421947E+01  1.72621247E-13  4.31999995E-03
  2.10000000E-02  6.00036830E+00 -1.18569718E-06  1.16902567E-04  6.65385617E+00 -9.79850042E-09  6.57267065E-02  4.43389351E+01  1.07050585E-07  9.63560430E-06  7.25446941E+01  1.90728646E-13  4.31999995E-03
  2.20000000E-02  6.00038530E+00 -1.27446855E-06  1.52022199E-04  6.65396570E+00 -1.07426251E-08  6.57267065E-02  4.43394089E+01  1.07013685E-07  9.60974833E-06  7.25479366E+01  2.10702026E-13  4.31999995E-03
  2.30000000E-02  6.00040243E+00 -1.33621470E-06  1.62681772E-04  6.65406347E+00 -1.17590748E-08  6.57267065E-02  4.43397674E+01  1.06974300E-07  1.02452516E-05  7.25504300E+01  2.30878993E-13  4.31999995E-03
  2.40000000E-02  6.00041941E+00 -1.42539658E-06  1.99006686E-04  6.65417303E+00 -1.28043597E-08  6.57267065E-02  4.43402412E+01  1.06935873E-07  1.02341518E-05  7.25536662E+01  2.53100040E-13  4.31999995E-03
  2.50000000E-02  6.00043650E+00 -1.48739517E-06  2.10712210E-04  6.65427081E+00 -1.39238893E-08  6.57267065E-02  4.43405994E+01  1.06894769E-07  1.08768249E-05  7.25561527E+01  2.75395728E-13  4.31999995E-03
  2.60000000E-02  6.00045345E+00 -1.57675251E-06  2.48032493E-04  6.65438037E+00 -1.50727577E-08  6.57267065E-02  4.43410730E+01  1.06854813E-07  1.08843024E-05  7.25593815E+01  2.99924508E-13  4.31999995E-03
  2.70000000E-02  6.00047051E+00 -1.63880389E-06  2.60598491E-04  6.65447813E+00 -1.62974951E-08  6.57267065E-02  4.43414309E+01  1.06811992E-07  1.15361749E-05  7.25618601E+01  3.24390008E-13  4.31999995E-03
  2.80000000E-02  6.00048743E+00 -1.72816269E-06  2.98739553E-04  6.65458767E+00 -1.75519330E-08  6.57267065E-02  4.43419040E+01  1.06770499E-07  1.15643895E-05  7.25650807E+01  3.51289254E-13  4.31999995E-03
  2.90000000E-02  6.00050446E+00 -1.79012313E-06  3.12015324E-04  6.65468541E+00 -1.88835885E-08  6.57267065E-02  4.43422615E+01  1.06725957E-07  1.22266395E-05  7.25675505E+01  3.77989132E-13  4.31999995E-03
  3.00000000E-02  6.00052134E+00 -1.87935743E-06  3.50834579E-04  6.65479490E+00 -2.02446316E-08  6.57267065E-02  4.43427340E+01  1.06682925E-07  1.22765210E-05  7.25707619E+01  4.07296870E-13  4.31999995E-03
  3.10000000E-02  6.00053833E+00 -1.94112683E-06  3.64700176E-04  6.65489259E+00 -2.16838682E-08  6.57267065E-02  4.43430908E+01  1.06636662E-07  1.29497095E-05  7.25732222E+01  4.36292464E-13  4.31999995E-03
  3.20000000E-02  6.00055517E+00 -2.03014832E-06  4.04083716E-04  6.65500202E+00 -2.31517918E-08  6.57267065E-02  4.43435625E+01  1.06592084E-07  1.30212787E-05  7.25764237E+01  4.68034927E-13  4.31999995E-03
  3.30000000E-02  6.00057213E+00 -2.09166150E-06  4.18445747E-04  6.65509964E+00 -2.46985528E-08  6.57267065E-02  4.43439186E+01  1.06544100E-07  1.37055157E-05  7.25788736E+01  4.99358853E-13  4.31999995E-03
  3.40000000E-02  6.00058893E+00 -2.18041295E-06  4.58304537E-04  6.65520899E+00 -2.62727608E-08  6.57267065E-02  4.43443895E+01  1.06497967E-07  1.37981409E-05  7.25820646E+01  5.33563858E-13  4.31999995E-03
  3.50000000E-02  6.00060585E+00 -2.24162909E-06  4.73091666E-04  6.65530653E+00 -2.79260003E-08  6.57267065E-02  4.43447446E+01  1.06448262E-07  1.44932089E-05  7.25845037E+01  5.67251227E-13  4.31999995E-03
  3.60000000E-02  6.00062261E+00 -2.33007368E-06  5.13357383E-04  6.65541579E+00 -2.96048308E-08  6.57267065E-02  4.43452146E+01  1.06400576E-07  1.46058103E-05  7.25876836E+01  6.03944306E-13  4.31999995E-03
  3.70000000E-02  6.00063948E+00 -2.39097045E-06  5.28515800E-04  6.65551323E+00 -3.13626750E-08  6.57267065E-02  4.43455688E+01  1.06349168E-07  1.53112498E-05  7.25901114E+01  6.40024364E-13  4.31999995E-03
  3.80000000E-02  6.00065621E+00 -2.47908812E-06  5.69136571E-04  6.65562240E+00 -3.31442508E-08  6.57267065E-02  4.43460377E+01  1.06299947E-07  1.54424608E-05  7.25932799E+01  6.79220376E-13  4.31999995E-03
  3.90000000E-02  6.00067304E+00 -2.53965559E-06  5.84625733E-04  6.65571974E+00 -3.50046279E-08  6.57267065E-02  4.43463909E+01  1.06246853E-07  1.61576471E-05  7.25956961E+01  7.17712554E-13  4.31999995E-03
  4.00000000E-02  6.00068972E+00 -2.62743736E-06  6.25562222E-04  6.65582880E+00 -3.68870604E-08  6.57267065E-02  4.43468588E+01  1.06196110E-07  1.63059514E-05  7.25988529E+01  7.59418266E-13  4.31999995E-03
  4.10000000E-02  6.00070652E+00 -2.68767460E-06  6.41351364E-04  6.65592603E+00 -3.88479728E-08  6.57267065E-02  4.43472108E+01  1.06141350E-07  1.70301651E-05  7.26012573E+01  8.00333413E-13  4.31999995E-03
  4.20000000E-02  6.00072317E+00 -2.77511976E-06  6.82573565E-04  6.65603499E+00 -4.08290879E-08  6.57267065E-02  4.43476776E+01  1.06089101E-07  1.71940136E-05  7.26044023E+01  8.44548262E-13  4.31999995E-03
  4.30000000E-02  6.00073993E+00 -2.83503030E-06  6.98638967E-04  6.65613211E+00 -4.28881749E-08  6.57267065E-02  4.43480285E+01  1.06032694E-07  1.79265060E-05  7.26067948E+01  8.87891456E-13  4.31999995E-03
  4.40000000E-02  6.00075654E+00 -2.92214216E-06  7.40123612E-04  6.65624096E+00 -4.49655165E-08  6.57267065E-02  4.43484942E+01  1.05978958E-07  1.81043936E-05  7.26099277E+01  9.34608577E-13  4.31999995E-03
  4.50000000E-02  6.00077327E+00 -2.98173187E-06  7.56446312E-04  6.65633797E+00 -4.71201391E-08  6.57267065E-02  4.43488440E+01  1.05920941E-07  1.88444155E-05  7.26123082E+01  9.80379117E-13  4.31999995E-03
  4.60000000E-02  6.00078984E+00 -3.06851541E-06  7.98174703E-04  6.65644670E+00 -4.92907957E-08  6.57267065E-02  4.43493086E+01  1.05865754E-07  1.90349173E-05  7.26154291E+01  1.02958685E-12  4.31999995E-03
  4.70000000E-02  6.00080654E+00 -3.12779224E-06  8.14738854E-04  6.65654360E+00 -5.15378179E-08  6.57267065E-02  4.43496572E+01  1.05806160E-07  1.97817414E-05  7.26177975E+01  1.07778069E-12  4.31999995E-03
  4.80000000E-02  6.00082308E+00 -3.21425579E-06  8.56695368E-04  6.65665222E+00 -5.37986555E-08  6.57267065E-02  4.43501206E+01  1.05749552E-07  1.99835398E-05  7.26209064E+01  1.12946406E-12  4.31999995E-03
  4.90000000E-02  6.00083975E+00 -3.27322866E-06  8.73487174E-04  6.65674900E+00 -5.61349384E-08  6.57267065E-02  4.43504682E+01  1.05688414E-07  2.07364797E-05  7.26232627E+01  1.18008184E-12  4.31999995E-03
  5.00000000E-02  6.00085626E+00 -3.35938093E-06  9.15658263E-04  6.65685751E+00 -5.84826351E-08  6.57267065E-02  4.43509304E+01  1.05630414E-07  2.09483803E-05  7.26263595E+01  1.23422339E-12  4.31999995E-03
