 # time mean(w) mean(w**2)
  1.00000000E-03  6.00001687E+00 -2.68394248E-16 -2.66935610E-05  6.65176743E+00  7.27193586E-17  6.57267065E-02  4.43304428E+01  1.07636364E-07  2.04572359E-07  7.24860428E+01  4.16977683E-16  4.31999995E-03
  2.00000000E-03  6.00003372E+00 -8.61312793E-16 -4.81011118E-05  6.65186319E+00  2.98203774E-16  6.57267065E-02  4.43308072E+01  1.07614259E-07  4.33960978E-07  7.24886896E+01  1.66136000E-15  4.31999995E-03
  3.00000000E-03  6.00005054E+00 -1.66753005E-15 -6.47534655E-05  6.65195892E+00  6.88116845E-16  6.57267065E-02  4.43311709E+01  1.07590919E-07  7.28310502E-07  7.24913355E+01  3.72414617E-15  4.31999995E-03
  4.00000000E-03  6.00006731E+00 -2.74571038E-15 -7.71186123E-05  6.65205459E+00  1.25364957E-15  6.57267065E-02  4.43315336E+01  1.07566347E-07  1.04416533E-06  7.24939788E+01  6.59725584E-15  4.31999995E-03
  5.00000000E-03  6.00008395E+00 -4.66061470E-15 -8.56460538E-05  6.65215016E+00  2.00561624E-15  6.57267065E-02  4.43318949E+01  1.07540543E-07  1.35482768E-06  7.24966182E+01  1.02733449E-14  4.31999995E-03
  6.00000000E-03  6.00010046E+00 -7.10581586E-15 -9.07215213E-05  6.65224560E+00  2.95940602E-15  6.57267065E-02  4.43322547E+01  1.07513509E-07  1.64493409E-06  7.24992525E+01  1.47456568E-14  4.31999995E-03
  7.00000000E-03  6.00011683E+00 -1.01439175E-14 -9.26916067E-05  6.65234090E+00  4.13603624E-15  6.57267065E-02  4.43326128E+01  1.07485247E-07  1.90694555E-06  7.25018809E+01  2.00079155E-14  4.31999995E-03
  8.00000000E-03  6.00013307E+00 -1.38282895E-14 -9.18717722E-05  6.65243604E+00  5.55985775E-15  6.57267065E-02  4.43329691E+01  1.07455761E-07  2.13855137E-06  7.25045029E+01  2.60542423E-14  4.31999995E-03
  9.00000000E-03  6.00014918E+00 -1.83359865E-14 -8.85490191E-05  6.65253103E+00  7.25669720E-15  6.57267065E-02  4.43333236E+01  1.07425054E-07  2.34072346E-06  7.25071180E+01  3.28790894E-14  4.31999995E-03
  1.00000000E-02  6.00016516E+00 -2.39076156E-14 -8.29839594E-05  6.65262587E+00  9.24274843E-15  6.57267065E-02  4.43336764E+01  1.07393128E-07  2.51656294E-06  7.25097261E+01  4.04771905E-14  4.31999995E-03
  1.10000000E-02  6.00018102E+00 -3.04916050E-14 -7.54126742E-05  6.65272055E+00  1.15472945E-14  6.57267065E-02  4.43340274E+01  1.07359987E-07  2.67038408E-06  7.25123268E+01  4.88435175E-14  4.31999995E-03
  1.20000000E-02  6.00019677E+00 -3.80572581E-14 -6.60488935E-05  6.65281507E+00  1.42020225E-14  6.57267065E-02  4.43343768E+01  1.07325635E-07  2.80689867E-06  7.25149202E+01  5.79732511E-14  4.31999995E-03
  1.30000000E-02  6.00021241E+00 -4.65955535E-14 -5.50860849E-05  6.65290945E+00  1.72212997E-14  6.57267065E-02  4.43347246E+01  1.07290078E-07  2.93074078E-06  7.25175063E+01  6.78621745E-14  4.31999995E-03
  1.40000000E-02  6.00022795E+00 -5.61472526E-14 -4.26992665E-05  6.65300368E+00  2.08430946E-14  6.57267065E-02  4.43350708E+01  1.07253318E-07  3.04630996E-06  7.25200852E+01  7.85061858E-14  4.31999995E-03
  1.50000000E-02  6.00024340E+00 -6.67220682E-14 -2.90465667E-05  6.65309779E+00  2.47845947E-14  6.57267065E-02  4.43354156E+01  1.07215362E-07  3.15761313E-06  7.25226570E+01  8.99011425E-14  4.31999995E-03
  1.60000000E-02  6.00025876E+00 -7.83034390E-14 -1.42706236E-05  6.65319176E+00  2.90637970E-14  6.57267065E-02  4.43357591E+01  1.07176215E-07  3.26815699E-06  7.25252218E+01  1.02043061E-13  4.31999995E-03
  1.70000000E-02  6.00027403E+00 -9.08662884E-14  1.50013064E-06  6.65328562E+00  3.54584399E-14  6.57267065E-02  4.43361013E+01  1.07135882E-07  3.38091683E-06  7.25277798E+01  1.14928417E-13  4.31999995E-03
  1.80000000E-02  6.00028924E+00 -1.04380227E-13  1.81502960E-05  6.65337937E+00  3.92044782E-14  6.57267065E-02  4.43364424E+01  1.07094370E-07  3.49833828E-06  7.25303312E+01  1.28554672E-13  4.31999995E-03
  1.90000000E-02  6.00030437E+00 -1.18806842E-13  3.55764240E-05  6.65347302E+00  4.22888227E-14  6.57267065E-02  4.43367823E+01  1.07051684E-07  3.62236211E-06  7.25328762E+01  1.42918499E-13  4.31999995E-03
  2.00000000E-02  6.00031945E+00 -1.34076696E-13  5.36860188E-05  6.65356657E+00  4.48380305E-14  6.57267065E-02  4.43371213E+01  1.07007832E-07  3.75447715E-06  7.25354149E+01  1.58016674E-13  4.31999995E-03
  2.10000000E-02  6.00033447E+00 -1.50153851E-13  7.23966109E-05  6.65366003E+00  4.71336591E-14  6.57267065E-02  4.43374594E+01  1.06962820E-07  3.89577686E-06  7.25379477E+01  1.73846054E-13  4.31999995E-03
  2.20000000E-02  6.00034943E+00 -1.67000289E-13  9.16348964E-05  6.65375342E+00  4.94934175E-14  6.57267065E-02  4.43377967E+01  1.06916655E-07  4.04700579E-06  7.25404746E+01  1.90403564E-13  4.31999995E-03
  2.30000000E-02  6.00036436E+00 -1.84578793E-13  1.11335937E-04  6.65384673E+00  5.22564527E-14  6.57267065E-02  4.43381332E+01  1.06869346E-07  4.20858469E-06  7.25429958E+01  2.07686210E-13  4.31999995E-03
  2.40000000E-02  6.00037924E+00 -2.02852130E-13  1.31442415E-04  6.65393998E+00  5.56911311E-14  6.57267065E-02  4.43384690E+01  1.06820899E-07  4.38066614E-06  7.25455117E+01  2.25691094E-13  4.31999995E-03
  2.50000000E-02  6.00039408E+00 -2.21785277E-13  1.51903934E-04  6.65403316E+00  5.99891267E-14  6.57267065E-02  4.43388042E+01  1.06771324E-07  4.56318974E-06  7.25480223E+01  2.44415346E-13  4.31999995E-03
  2.60000000E-02  6.00040889E+00 -2.41299281E-13  1.72676368E-04  6.65412629E+00  6.53143014E-14  6.57267065E-02  4.43391388E+01  1.06720628E-07  4.75597311E-06  7.25505277E+01  2.63855972E-13  4.31999995E-03
  2.70000000E-02  6.00042367E+00 -2.61337984E-13  1.93721253E-04  6.65421937E+00  7.16495413E-14  6.57267065E-02  4.43394729E+01  1.06668819E-07  4.95871487E-06  7.25530282E+01  2.84010059E-13  4.31999995E-03
  2.80000000E-02  6.00043842E+00 -2.81809497E-13  2.15005265E-04  6.65431241E+00  7.89598041E-14  6.57267065E-02  4.43398065E+01  1.06615908E-07  5.17101796E-06  7.25555239E+01  3.04874777E-13  4.31999995E-03
  2.90000000E-02  6.00045315E+00 -3.02619538E-13  2.36499764E-04  6.65440540E+00  8.72280364E-14  6.57267065E-02  4.43401398E+01  1.06561903E-07  5.39244455E-06  7.25580149E+01  3.26447339E-13  4.31999995E-03
  3.00000000E-02  6.00046786E+00 -3.23789959E-13  2.58180322E-04  6.65449835E+00  9.63880232E-14  6.57267065E-02  4.43404726E+01  1.06506813E-07  5.62250821E-06  7.25605013E+01  3.48724992E-13  4.31999995E-03
  3.10000000E-02  6.00048255E+00 -3.45358977E-13  2.80026270E-04  6.65459127E+00  1.06429598E-13  6.57267065E-02  4.43408050E+01  1.06450650E-07  5.86072225E-06  7.25629832E+01  3.71705017E-13  4.31999995E-03
  3.20000000E-02  6.00049723E+00 -3.67372081E-13  3.02020290E-04  6.65468415E+00  1.17430850E-13  6.57267065E-02  4.43411372E+01  1.06393421E-07  6.10662091E-06  7.25654607E+01  3.95384727E-13  4.31999995E-03
  3.30000000E-02  6.00051188E+00 -3.89863968E-13  3.24148047E-04  6.65477700E+00  1.29437221E-13  6.57267065E-02  4.43414690E+01  1.06335138E-07  6.35973631E-06  7.25679338E+01  4.19761462E-13  4.31999995E-03
  3.40000000E-02  6.00052653E+00 -4.12864951E-13  3.46397816E-04  6.65486983E+00  1.42418254E-13  6.57267065E-02  4.43418005E+01  1.06275812E-07  6.61960986E-06  7.25704027E+01  4.44832588E-13  4.31999995E-03
  3.50000000E-02  6.00054117E+00 -4.36398661E-13  3.68760133E-04  6.65496262E+00  1.56328529E-13  6.57267065E-02  4.43421317E+01  1.06215452E-07  6.88580353E-06  7.25728673E+01  4.70595496E-13  4.31999995E-03
  3.60000000E-02  6.00055579E+00 -4.60481357E-13  3.91227481E-04  6.65505538E+00  1.71009831E-13  6.57267065E-02  4.43424627E+01  1.06154070E-07  7.15790896E-06  7.25753277E+01  4.97047547E-13  4.31999995E-03
  3.70000000E-02  6.00057040E+00 -4.85088062E-13  4.13793980E-04  6.65514812E+00  1.86186301E-13  6.57267065E-02  4.43427933E+01  1.06091677E-07  7.43553704E-06  7.25777839E+01  5.24185399E-13  4.31999995E-03
  3.80000000E-02  6.00058501E+00 -5.10221341E-13  4.36455202E-04  6.65524083E+00  2.01722883E-13  6.57267065E-02  4.43431237E+01  1.06028284E-07  7.71831569E-06  7.25802358E+01  5.52006390E-13  4.31999995E-03
  3.90000000E-02  6.00059961E+00 -5.35959040E-13  4.59207946E-04  6.65533351E+00  2.16703299E-13  6.57267065E-02  4.43434539E+01  1.05963903E-07  8.00589580E-06  7.25826836E+01  5.80507733E-13  4.31999995E-03
  4.00000000E-02  6.00061419E+00 -5.62303436E-13  4.82050045E-04  6.65542617E+00  2.29825645E-13  6.57267065E-02  4.43437838E+01  1.05898547E-07  8.29794476E-06  7.25851272E+01  6.09686542E-13  4.31999995E-03
  4.10000000E-02  6.00062878E+00 -5.89245766E-13  5.04980184E-04  6.65551880E+00  2.41362936E-13  6.57267065E-02  4.43441134E+01  1.05832227E-07  8.59417283E-06  7.25875666E+01  6.39539995E-13  4.31999995E-03
  4.20000000E-02  6.00064335E+00 -6.16773112E-13  5.27997743E-04  6.65561140E+00  2.51806357E-13  6.57267065E-02  4.43444427E+01  1.05764955E-07  8.89426082E-06  7.25900018E+01  6.70065345E-13  4.31999995E-03
  4.30000000E-02  6.00065792E+00 -6.44877028E-13  5.51102647E-04  6.65570398E+00  2.61331032E-13  6.57267065E-02  4.43447717E+01  1.05696744E-07  9.19775313E-06  7.25924326E+01  7.01259885E-13  4.31999995E-03
  4.40000000E-02  6.00067248E+00 -6.73549139E-13  5.74295227E-04  6.65579652E+00  2.70140804E-13  6.57267065E-02  4.43451005E+01  1.05627607E-07  9.50446845E-06  7.25948591E+01  7.33120951E-13  4.31999995E-03
  4.50000000E-02  6.00068704E+00 -7.02775999E-13  5.97576061E-04  6.65588903E+00  2.78513289E-13  6.57267065E-02  4.43454289E+01  1.05557557E-07  9.81423054E-06  7.25972813E+01  7.65645913E-13  4.31999995E-03
  4.60000000E-02  6.00070159E+00 -7.32539883E-13  6.20945866E-04  6.65598152E+00  2.86670215E-13  6.57267065E-02  4.43457570E+01  1.05486607E-07  1.01268708E-05  7.25996991E+01  7.98832170E-13  4.31999995E-03
  4.70000000E-02  6.00071614E+00 -7.62818994E-13  6.44405398E-04  6.65607397E+00  2.94942485E-13  6.57267065E-02  4.43460848E+01  1.05414771E-07  1.04422198E-05  7.26021125E+01  8.32677149E-13  4.31999995E-03
  4.80000000E-02  6.00073067E+00 -7.93590734E-13  6.67955382E-04  6.65616639E+00  3.03568557E-13  6.57267065E-02  4.43464122E+01  1.05342061E-07  1.07601206E-05  7.26045215E+01  8.67178296E-13  4.31999995E-03
  4.90000000E-02  6.00074520E+00 -8.24832074E-13  6.91596459E-04  6.65625878E+00  3.12713562E-13  6.57267065E-02  4.43467393E+01  1.05268492E-07  1.10804307E-05  7.26069260E+01  9.02333082E-13  4.31999995E-03
  5.00000000E-02  6.00075973E+00 -8.56521026E-13  7.15329143E-04  6.65635113E+00  3.22465158E-13  6.57267065E-02  4.43470661E+01  1.05194077E-07  1.14030159E-05  7.26093260E+01  9.38138996E-13  4.31999995E-03
