 # time mean(w) mean(w**2)
  1.00000000E-03  6.00001882E+00 -1.46795874E-08 -2.29459098E-05  6.65178104E+00 -3.09341652E-12  6.57267065E-02  4.43305517E+01  1.07636490E-07  3.11729318E-07  7.24866135E+01  4.18584799E-16  4.31999995E-03
  2.00000000E-03  6.00003737E+00 -4.63663985E-08 -3.29417850E-05  6.65189238E+00 -2.07132041E-11  6.57267065E-02  4.43310452E+01  1.07614854E-07  7.24427991E-07  7.24899695E+01  1.67736643E-15  4.31999995E-03
  3.00000000E-03  6.00005574E+00 -6.00154543E-08 -6.13671558E-05  6.65199135E+00 -8.13041627E-11  6.57267065E-02  4.43314178E+01  1.07592466E-07  1.50622131E-06  7.24925582E+01  3.74963679E-15  4.31999995E-03
  4.00000000E-03  6.00007377E+00 -1.08162268E-07 -6.05557981E-05  6.65210168E+00 -1.77461840E-10  6.57267065E-02  4.43319022E+01  1.07569146E-07  2.04148033E-06  7.24958762E+01  6.68815675E-15  4.31999995E-03
  5.00000000E-03  6.00009171E+00 -1.35419076E-07 -8.00221296E-05  6.65219988E+00 -3.47795887E-10  6.57267065E-02  4.43322679E+01  1.07545069E-07  2.96085603E-06  7.24984354E+01  1.04038840E-14  4.31999995E-03
  6.00000000E-03  6.00010939E+00 -1.95393132E-07 -7.10906013E-05  6.65230962E+00 -5.70928869E-10  6.57267065E-02  4.43327468E+01  1.07520253E-07  3.40349983E-06  7.25017292E+01  1.50482711E-14  4.31999995E-03
  7.00000000E-03  6.00012706E+00 -2.32767566E-07 -8.35094204E-05  6.65240738E+00 -8.76436188E-10  6.57267065E-02  4.43331084E+01  1.07494565E-07  4.29833140E-06  7.25042696E+01  2.04391129E-14  4.31999995E-03
  8.00000000E-03  6.00014450E+00 -3.01383982E-07 -6.82922039E-05  6.65251681E+00 -1.23363584E-09  6.57267065E-02  4.43335841E+01  1.07468316E-07  4.60139459E-06  7.25075487E+01  2.68371491E-14  4.31999995E-03
  9.00000000E-03  6.00016199E+00 -3.46192026E-07 -7.51957174E-05  6.65261437E+00 -1.67418413E-09  6.57267065E-02  4.43339435E+01  1.07440962E-07  5.42615078E-06  7.25100777E+01  3.39366021E-14  4.31999995E-03
  1.00000000E-02  6.00017929E+00 -4.21127283E-07 -5.50436028E-05  6.65272367E+00 -2.15105070E-09  6.57267065E-02  4.43344176E+01  1.07413063E-07  5.60238829E-06  7.25133479E+01  4.20357221E-14  4.31999995E-03
  1.10000000E-02  6.00019667E+00 -4.71364415E-07 -5.75975859E-05  6.65282116E+00 -2.68180531E-09  6.57267065E-02  4.43347760E+01  1.07383815E-07  6.35654744E-06  7.25158697E+01  5.08004793E-14  4.31999995E-03
  1.20000000E-02  6.00021387E+00 -5.50903341E-07 -3.35251300E-05  6.65293044E+00 -3.21797157E-09  6.57267065E-02  4.43352495E+01  1.07354385E-07  6.43692750E-06  7.25191342E+01  6.06646230E-14  4.31999995E-03
  1.30000000E-02  6.00023117E+00 -6.05076522E-07 -3.26141709E-05  6.65302795E+00 -3.80490627E-09  6.57267065E-02  4.43356076E+01  1.07323492E-07  7.13600970E-06  7.25216512E+01  7.11721653E-14  4.31999995E-03
  1.40000000E-02  6.00024831E+00 -6.87945733E-07 -5.38807562E-06  6.65313726E+00 -4.40301676E-09  6.57267065E-02  4.43360810E+01  1.07292600E-07  7.15321435E-06  7.25249115E+01  8.28996722E-14  4.31999995E-03
  1.50000000E-02  6.00026556E+00 -7.44940401E-07 -1.68464146E-06  6.65323482E+00 -5.05752837E-09  6.57267065E-02  4.43364390E+01  1.07260041E-07  7.81577434E-06  7.25274244E+01  9.52034555E-14  4.31999995E-03
  1.60000000E-02  6.00028266E+00 -8.30190614E-07  2.81108855E-05  6.65334420E+00 -5.72785425E-09  6.57267065E-02  4.43369125E+01  1.07227674E-07  7.79733918E-06  7.25306809E+01  1.08871135E-13  4.31999995E-03
  1.70000000E-02  6.00029987E+00 -8.89172879E-07  3.40897777E-05  6.65344182E+00 -6.45999090E-09  6.57267065E-02  4.43372707E+01  1.07193431E-07  8.43922157E-06  7.25331898E+01  1.23038949E-13  4.31999995E-03
  1.80000000E-02  6.00031693E+00 -9.76092747E-07  6.60010781E-05  6.65355125E+00 -7.21420804E-09  6.57267065E-02  4.43377444E+01  1.07159570E-07  8.40565779E-06  7.25364423E+01  1.38727109E-13  4.31999995E-03
  1.90000000E-02  6.00033411E+00 -1.03643480E-06  7.38490390E-05  6.65364894E+00 -8.03496705E-09  6.57267065E-02  4.43381028E+01  1.07123625E-07  9.03846629E-06  7.25389468E+01  1.54828992E-13  4.31999995E-03
  2.00000000E-02  6.00035114E+00 -1.12448681E-06  1.07513588E-04  6.65375843E+00 -8.88149412E-09  6.57267065E-02  4.43385766E+01  1.07088252E-07  9.00400797E-06  7.25421947E+01  1.72620547E-13  4.31999995E-03
  2.10000000E-02  6.00036830E+00 -1.18571316E-06  1.16902567E-04  6.65385617E+00 -9.79783147E-09  6.57267065E-02  4.43389351E+01  1.07050590E-07  9.63560430E-06  7.25446941E+01  1.90727901E-13  4.31999995E-03
  2.20000000E-02  6.00038530E+00 -1.27448809E-06  1.52022198E-04  6.65396570E+00 -1.07418924E-08  6.57267065E-02  4.43394089E+01  1.07013690E-07  9.60974833E-06  7.25479366E+01  2.10701223E-13  4.31999995E-03
  2.30000000E-02  6.00040243E+00 -1.33623867E-06  1.62681772E-04  6.65406347E+00 -1.17582768E-08  6.57267065E-02  4.43397674E+01  1.06974306E-07  1.02452516E-05  7.25504300E+01  2.30878169E-13  4.31999995E-03
  2.40000000E-02  6.00041941E+00 -1.42542527E-06  1.99006685E-04  6.65417303E+00 -1.28034884E-08  6.57267065E-02  4.43402412E+01  1.06935879E-07  1.02341518E-05  7.25536662E+01  2.53099183E-13  4.31999995E-03
  2.50000000E-02  6.00043650E+00 -1.48742986E-06  2.10712209E-04  6.65427081E+00 -1.39229441E-08  6.57267065E-02  4.43405994E+01  1.06894777E-07  1.08768249E-05  7.25561527E+01  2.75394856E-13  4.31999995E-03
  2.60000000E-02  6.00045345E+00 -1.57679363E-06  2.48032492E-04  6.65438037E+00 -1.50717448E-08  6.57267065E-02  4.43410730E+01  1.06854821E-07  1.08843024E-05  7.25593815E+01  2.99923009E-13  4.31999995E-03
  2.70000000E-02  6.00047051E+00 -1.63885204E-06  2.60598491E-04  6.65447813E+00 -1.62964048E-08  6.57267065E-02  4.43414309E+01  1.06812000E-07  1.15361749E-05  7.25618601E+01  3.24387904E-13  4.31999995E-03
  2.80000000E-02  6.00048743E+00 -1.72821800E-06  2.98739552E-04  6.65458767E+00 -1.75507517E-08  6.57267065E-02  4.43419040E+01  1.06770507E-07  1.15643895E-05  7.25650807E+01  3.51286380E-13  4.31999995E-03
  2.90000000E-02  6.00050446E+00 -1.79018588E-06  3.12015323E-04  6.65468541E+00 -1.88823019E-08  6.57267065E-02  4.43422615E+01  1.06725966E-07  1.22266395E-05  7.25675505E+01  3.77985832E-13  4.31999995E-03
  3.00000000E-02  6.00052134E+00 -1.87942765E-06  3.50834578E-04  6.65479490E+00 -2.02432281E-08  6.57267065E-02  4.43427340E+01  1.06682934E-07  1.22765210E-05  7.25707619E+01  4.07293105E-13  4.31999995E-03
  3.10000000E-02  6.00053833E+00 -1.94120524E-06  3.64700175E-04  6.65489259E+00 -2.16823428E-08  6.57267065E-02  4.43430908E+01  1.06636672E-07  1.29497095E-05  7.25732222E+01  4.36288494E-13  4.31999995E-03
  3.20000000E-02  6.00055517E+00 -2.03023517E-06  4.04083715E-04  6.65500202E+00 -2.31501326E-08  6.57267065E-02  4.43435625E+01  1.06592093E-07  1.30212787E-05  7.25764237E+01  4.68030512E-13  4.31999995E-03
  3.30000000E-02  6.00057213E+00 -2.09175694E-06  4.18445746E-04  6.65509964E+00 -2.46967476E-08  6.57267065E-02  4.43439186E+01  1.06544110E-07  1.37055157E-05  7.25788736E+01  4.99354131E-13  4.31999995E-03
  3.40000000E-02  6.00058893E+00 -2.18051702E-06  4.58304537E-04  6.65520899E+00 -2.62708115E-08  6.57267065E-02  4.43443895E+01  1.06497978E-07  1.37981409E-05  7.25820646E+01  5.33558482E-13  4.31999995E-03
  3.50000000E-02  6.00060585E+00 -2.24174229E-06  4.73091665E-04  6.65530653E+00 -2.79239088E-08  6.57267065E-02  4.43447446E+01  1.06448274E-07  1.44932089E-05  7.25845037E+01  5.67245327E-13  4.31999995E-03
  3.60000000E-02  6.00062261E+00 -2.33019607E-06  5.13357382E-04  6.65541579E+00 -2.96026267E-08  6.57267065E-02  4.43452146E+01  1.06400590E-07  1.46058103E-05  7.25876836E+01  6.03937403E-13  4.31999994E-03
  3.70000000E-02  6.00063948E+00 -2.39110266E-06  5.28515799E-04  6.65551323E+00 -3.13603508E-08  6.57267065E-02  4.43455688E+01  1.06349183E-07  1.53112498E-05  7.25901114E+01  6.40016665E-13  4.31999994E-03
  3.80000000E-02  6.00065621E+00 -2.47923027E-06  5.69136570E-04  6.65562240E+00 -3.31418106E-08  6.57267065E-02  4.43460377E+01  1.06299964E-07  1.54424608E-05  7.25932799E+01  6.79211542E-13  4.31999994E-03
  3.90000000E-02  6.00067304E+00 -2.53980796E-06  5.84625732E-04  6.65571974E+00 -3.50020538E-08  6.57267065E-02  4.43463909E+01  1.06246873E-07  1.61576471E-05  7.25956961E+01  7.17702736E-13  4.31999994E-03
  4.00000000E-02  6.00068972E+00 -2.62759995E-06  6.25562222E-04  6.65582880E+00 -3.68843351E-08  6.57267065E-02  4.43468588E+01  1.06196132E-07  1.63059514E-05  7.25988529E+01  7.59407442E-13  4.31999994E-03
  4.10000000E-02  6.00070652E+00 -2.68784796E-06  6.41351363E-04  6.65592603E+00 -3.88450884E-08  6.57267065E-02  4.43472108E+01  1.06141374E-07  1.70301651E-05  7.26012573E+01  8.00321499E-13  4.31999994E-03
  4.20000000E-02  6.00072317E+00 -2.77530391E-06  6.82573564E-04  6.65603499E+00 -4.08260285E-08  6.57267065E-02  4.43476776E+01  1.06089126E-07  1.71940137E-05  7.26044023E+01  8.44535132E-13  4.31999994E-03
  4.30000000E-02  6.00073993E+00 -2.83522544E-06  6.98638966E-04  6.65613211E+00 -4.28849382E-08  6.57267065E-02  4.43480285E+01  1.06032722E-07  1.79265060E-05  7.26067948E+01  8.87877294E-13  4.31999994E-03
  4.40000000E-02  6.00075654E+00 -2.92234828E-06  7.40123611E-04  6.65624096E+00 -4.49620820E-08  6.57267065E-02  4.43484942E+01  1.05978987E-07  1.81043936E-05  7.26099277E+01  9.34593225E-13  4.31999994E-03
  4.50000000E-02  6.00077327E+00 -2.98194947E-06  7.56446311E-04  6.65633797E+00 -4.71165080E-08  6.57267064E-02  4.43488440E+01  1.05920972E-07  1.88444156E-05  7.26123082E+01  9.80362746E-13  4.31999994E-03
  4.60000000E-02  6.00078984E+00 -3.06874472E-06  7.98174702E-04  6.65644670E+00 -4.92869635E-08  6.57267064E-02  4.43493086E+01  1.05865787E-07  1.90349173E-05  7.26154291E+01  1.02956898E-12  4.31999994E-03
  4.70000000E-02  6.00080654E+00 -3.12803415E-06  8.14738853E-04  6.65654360E+00 -5.15337904E-08  6.57267064E-02  4.43496572E+01  1.05806195E-07  1.97817414E-05  7.26177975E+01  1.07776177E-12  4.31999994E-03
  4.80000000E-02  6.00082308E+00 -3.21451040E-06  8.56695367E-04  6.65665222E+00 -5.37944227E-08  6.57267064E-02  4.43501206E+01  1.05749589E-07  1.99835398E-05  7.26209064E+01  1.12944353E-12  4.31999994E-03
  4.90000000E-02  6.00083975E+00 -3.27349640E-06  8.73487172E-04  6.65674900E+00 -5.61305082E-08  6.57267064E-02  4.43504682E+01  1.05688451E-07  2.07364798E-05  7.26232627E+01  1.18006110E-12  4.31999994E-03
  5.00000000E-02  6.00085626E+00 -3.35966146E-06  9.15658262E-04  6.65685751E+00 -5.84780100E-08  6.57267064E-02  4.43509304E+01  1.05630454E-07  2.09483804E-05  7.26263595E+01  1.23420084E-12  4.31999994E-03
