# time mean(w) mean(w**2)
  1.00000000E-03  6.00001882E+00 -1.46795874E-08 -2.29459098E-05  6.65178104E+00 -3.09963398E-12  6.57267065E-02  4.43305517E+01  1.07636490E-07  3.11729318E-07  7.24866135E+01  4.18905984E-16  4.31999995E-03
  2.00000000E-03  6.00003737E+00 -4.63663986E-08 -3.29417850E-05  6.65189238E+00 -2.07208086E-11  6.57267065E-02  4.43310452E+01  1.07614854E-07  7.24427991E-07  7.24899695E+01  1.67913008E-15  4.31999995E-03
  3.00000000E-03  6.00005574E+00 -6.00154545E-08 -6.13671558E-05  6.65199135E+00 -8.13237997E-11  6.57267065E-02  4.43314178E+01  1.07592466E-07  1.50622131E-06  7.24925582E+01  3.75054593E-15  4.31999995E-03
  4.00000000E-03  6.00007377E+00 -1.08162307E-07 -6.05557981E-05  6.65210168E+00 -1.77375081E-10  6.57267065E-02  4.43319022E+01  1.07569148E-07  2.04148033E-06  7.24958762E+01  6.69160508E-15  4.31999995E-03
  5.00000000E-03  6.00009171E+00 -1.35419149E-07 -8.00221296E-05  6.65219988E+00 -3.47619651E-10  6.57267065E-02  4.43322679E+01  1.07545073E-07  2.96085603E-06  7.24984354E+01  1.04053241E-14  4.31999995E-03
  6.00000000E-03  6.00010939E+00 -1.95393286E-07 -7.10906013E-05  6.65230962E+00 -5.70518420E-10  6.57267065E-02  4.43327468E+01  1.07520263E-07  3.40349983E-06  7.25017292E+01  1.50534373E-14  4.31999995E-03
  7.00000000E-03  6.00012706E+00 -2.32767849E-07 -8.35094203E-05  6.65240738E+00 -8.75679672E-10  6.57267065E-02  4.43331084E+01  1.07494583E-07  4.29833140E-06  7.25042696E+01  2.04411378E-14  4.31999995E-03
  8.00000000E-03  6.00014450E+00 -3.01384443E-07 -6.82922038E-05  6.65251681E+00 -1.23237597E-09  6.57267065E-02  4.43335841E+01  1.07468342E-07  4.60139459E-06  7.25075487E+01  2.68440461E-14  4.31999995E-03
  9.00000000E-03  6.00016199E+00 -3.46192676E-07 -7.51957173E-05  6.65261437E+00 -1.67249395E-09  6.57267065E-02  4.43339435E+01  1.07440993E-07  5.42615078E-06  7.25100777E+01  3.39392956E-14  4.31999995E-03
  1.00000000E-02  6.00017929E+00 -4.21128164E-07 -5.50436026E-05  6.65272367E+00 -2.14883986E-09  6.57267065E-02  4.43344176E+01  1.07413105E-07  5.60238829E-06  7.25133479E+01  4.20443308E-14  4.31999995E-03
  1.10000000E-02  6.00019667E+00 -4.71365584E-07 -5.75975857E-05  6.65282116E+00 -2.67900113E-09  6.57267065E-02  4.43347760E+01  1.07383866E-07  6.35654744E-06  7.25158697E+01  5.08039293E-14  4.31999995E-03
  1.20000000E-02  6.00021387E+00 -5.50904870E-07 -3.35251298E-05  6.65293044E+00 -3.21438672E-09  6.57267065E-02  4.43352495E+01  1.07354455E-07  6.43692751E-06  7.25191342E+01  6.06751265E-14  4.31999995E-03
  1.30000000E-02  6.00023117E+00 -6.05078183E-07 -3.26141706E-05  6.65302795E+00 -3.80051376E-09  6.57267065E-02  4.43356076E+01  1.07323578E-07  7.13600970E-06  7.25216512E+01  7.11763109E-14  4.31999995E-03
  1.40000000E-02  6.00024831E+00 -6.87947458E-07 -5.38807535E-06  6.65313726E+00 -4.39779075E-09  6.57267065E-02  4.43360810E+01  1.07292708E-07  7.15321435E-06  7.25249115E+01  8.29123134E-14  4.31999995E-03
  1.50000000E-02  6.00026556E+00 -7.44942175E-07 -1.68464116E-06  6.65323482E+00 -5.05144113E-09  6.57267065E-02  4.43364390E+01  1.07260164E-07  7.81577434E-06  7.25274244E+01  9.52086959E-14  4.31999995E-03
  1.60000000E-02  6.00028266E+00 -8.30192418E-07  2.81108858E-05  6.65334420E+00 -5.72093503E-09  6.57267065E-02  4.43369125E+01  1.07227815E-07  7.79733918E-06  7.25306809E+01  1.08886205E-13  4.31999995E-03
  1.70000000E-02  6.00029987E+00 -8.89174430E-07  3.40897780E-05  6.65344182E+00 -6.45227326E-09  6.57267065E-02  4.43372707E+01  1.07193582E-07  8.43922156E-06  7.25331898E+01  1.23045582E-13  4.31999995E-03
  1.80000000E-02  6.00031693E+00 -9.76093964E-07  6.60010785E-05  6.65355125E+00 -7.20569115E-09  6.57267065E-02  4.43377444E+01  1.07159736E-07  8.40565779E-06  7.25364423E+01  1.38744743E-13  4.31999995E-03
  1.90000000E-02  6.00033411E+00 -1.03643528E-06  7.38490394E-05  6.65364894E+00 -8.02567021E-09  6.57267065E-02  4.43381028E+01  1.07123802E-07  9.03846629E-06  7.25389468E+01  1.54837268E-13  4.31999995E-03
  2.00000000E-02  6.00035114E+00 -1.12448640E-06  1.07513589E-04  6.65375843E+00 -8.87131702E-09  6.57267065E-02  4.43385766E+01  1.07088451E-07  9.00400797E-06  7.25421947E+01  1.72640593E-13  4.31999995E-03
  2.10000000E-02  6.00036830E+00 -1.18571160E-06  1.16902567E-04  6.65385617E+00 -9.78671446E-09  6.57267065E-02  4.43389351E+01  1.07050809E-07  9.63560430E-06  7.25446941E+01  1.90737819E-13  4.31999995E-03
  2.20000000E-02  6.00038530E+00 -1.27448528E-06  1.52022199E-04  6.65396570E+00 -1.07296647E-08  6.57267065E-02  4.43394089E+01  1.07013942E-07  9.60974833E-06  7.25479366E+01  2.10723746E-13  4.31999995E-03
  2.30000000E-02  6.00040243E+00 -1.33623432E-06  1.62681772E-04  6.65406347E+00 -1.17448033E-08  6.57267065E-02  4.43397674E+01  1.06974586E-07  1.02452516E-05  7.25504300E+01  2.30889600E-13  4.31999995E-03
  2.40000000E-02  6.00041941E+00 -1.42541924E-06  1.99006686E-04  6.65417303E+00 -1.27887695E-08  6.57267065E-02  4.43402412E+01  1.06936196E-07  1.02341518E-05  7.25536662E+01  2.53125109E-13  4.31999995E-03
  2.50000000E-02  6.00043650E+00 -1.48742146E-06  2.10712210E-04  6.65427081E+00 -1.39069494E-08  6.57267065E-02  4.43405994E+01  1.06895116E-07  1.08768249E-05  7.25561527E+01  2.75408661E-13  4.31999995E-03
  2.60000000E-02  6.00045345E+00 -1.57678257E-06  2.48032493E-04  6.65438037E+00 -1.50545182E-08  6.57267065E-02  4.43410730E+01  1.06855191E-07  1.08843024E-05  7.25593815E+01  2.99953697E-13  4.31999995E-03
  2.70000000E-02  6.00047051E+00 -1.63883802E-06  2.60598491E-04  6.65447813E+00 -1.62779962E-08  6.57267065E-02  4.43414309E+01  1.06812387E-07  1.15361749E-05  7.25618601E+01  3.24406125E-13  4.31999995E-03
  2.80000000E-02  6.00048743E+00 -1.72820096E-06  2.98739553E-04  6.65458767E+00 -1.75311719E-08  6.57267065E-02  4.43419040E+01  1.06770919E-07  1.15643895E-05  7.25650807E+01  3.51322808E-13  4.31999995E-03
  2.90000000E-02  6.00050446E+00 -1.79016559E-06  3.12015324E-04  6.65468541E+00 -1.88616066E-08  6.57267065E-02  4.43422615E+01  1.06726392E-07  1.22266395E-05  7.25675505E+01  3.78008777E-13  4.31999995E-03
  3.00000000E-02  6.00052134E+00 -1.87940414E-06  3.50834579E-04  6.65479490E+00 -2.02214246E-08  6.57267065E-02  4.43427340E+01  1.06683383E-07  1.22765210E-05  7.25707619E+01  4.07335173E-13  4.31999995E-03
  3.10000000E-02  6.00053833E+00 -1.94117828E-06  3.64700176E-04  6.65489259E+00 -2.16594814E-08  6.57267065E-02  4.43430908E+01  1.06637138E-07  1.29497095E-05  7.25732222E+01  4.36316277E-13  4.31999995E-03
  3.20000000E-02  6.00055517E+00 -2.03020462E-06  4.04083716E-04  6.65500202E+00 -2.31261325E-08  6.57267065E-02  4.43435625E+01  1.06592589E-07  1.30212787E-05  7.25764237E+01  4.68078153E-13  4.31999995E-03
  3.30000000E-02  6.00057213E+00 -2.09172319E-06  4.18445747E-04  6.65509964E+00 -2.46715720E-08  6.57267065E-02  4.43439186E+01  1.06544630E-07  1.37055157E-05  7.25788736E+01  4.99386827E-13  4.31999995E-03
  3.40000000E-02  6.00058893E+00 -2.18048012E-06  4.58304537E-04  6.65520899E+00 -2.62444057E-08  6.57267065E-02  4.43443895E+01  1.06498534E-07  1.37981409E-05  7.25820646E+01  5.33612673E-13  4.31999995E-03
  3.50000000E-02  6.00060585E+00 -2.24170259E-06  4.73091666E-04  6.65530653E+00 -2.78962299E-08  6.57267065E-02  4.43447446E+01  1.06448857E-07  1.44932089E-05  7.25845037E+01  5.67284061E-13  4.31999995E-03
  3.60000000E-02  6.00062261E+00 -2.33015367E-06  5.13357383E-04  6.65541579E+00 -2.95735934E-08  6.57267065E-02  4.43452146E+01  1.06401213E-07  1.46058103E-05  7.25876836E+01  6.03999343E-13  4.31999995E-03
  3.70000000E-02  6.00063948E+00 -2.39105687E-06  5.28515800E-04  6.65551323E+00 -3.13299237E-08  6.57267065E-02  4.43455688E+01  1.06349829E-07  1.53112498E-05  7.25901114E+01  6.40062423E-13  4.31999995E-03
  3.80000000E-02  6.00065621E+00 -2.47918087E-06  5.69136571E-04  6.65562240E+00 -3.31100385E-08  6.57267065E-02  4.43460377E+01  1.06300643E-07  1.54424608E-05  7.25932799E+01  6.79282519E-13  4.31999995E-03
  3.90000000E-02  6.00067304E+00 -2.53975466E-06  5.84625733E-04  6.65571974E+00 -3.49690048E-08  6.57267065E-02  4.43463909E+01  1.06247573E-07  1.61576471E-05  7.25956961E+01  7.17757236E-13  4.31999995E-03
  4.00000000E-02  6.00068972E+00 -2.62754257E-06  6.25562223E-04  6.65582880E+00 -3.68499368E-08  6.57267065E-02  4.43468588E+01  1.06196869E-07  1.63059514E-05  7.25988529E+01  7.59487833E-13  4.31999995E-03
  4.10000000E-02  6.00070652E+00 -2.68778561E-06  6.41351364E-04  6.65592603E+00 -3.88092999E-08  6.57267065E-02  4.43472108E+01  1.06142137E-07  1.70301651E-05  7.26012573E+01  8.00384808E-13  4.31999995E-03
  4.20000000E-02  6.00072317E+00 -2.77523652E-06  6.82573565E-04  6.65603499E+00 -4.07887986E-08  6.57267065E-02  4.43476776E+01  1.06089930E-07  1.71940137E-05  7.26044023E+01  8.44625887E-13  4.31999995E-03
  4.30000000E-02  6.00073993E+00 -2.83515268E-06  6.98638967E-04  6.65613211E+00 -4.28462285E-08  6.57267065E-02  4.43480285E+01  1.06033554E-07  1.79265060E-05  7.26067948E+01  8.87950178E-13  4.31999995E-03
  4.40000000E-02  6.00075654E+00 -2.92227001E-06  7.40123613E-04  6.65624096E+00 -4.49218344E-08  6.57267065E-02  4.43484942E+01  1.05979863E-07  1.81043936E-05  7.26099277E+01  9.34695031E-13  4.31999995E-03
  4.50000000E-02  6.00077327E+00 -2.98186647E-06  7.56446312E-04  6.65633797E+00 -4.70746930E-08  6.57267065E-02  4.43488440E+01  1.05921871E-07  1.88444155E-05  7.26123082E+01  9.80445730E-13  4.31999995E-03
  4.60000000E-02  6.00078984E+00 -3.06865718E-06  7.98174703E-04  6.65644670E+00 -4.92436342E-08  6.57267065E-02  4.43493086E+01  1.05866722E-07  1.90349173E-05  7.26154291E+01  1.02968296E-12  4.31999995E-03
  4.70000000E-02  6.00080654E+00 -3.12794177E-06  8.14738854E-04  6.65654360E+00 -5.14890067E-08  6.57267065E-02  4.43496572E+01  1.05807146E-07  1.97817414E-05  7.26177975E+01  1.07785627E-12  4.31999995E-03
  4.80000000E-02  6.00082308E+00 -3.21441311E-06  8.56695368E-04  6.65665222E+00 -5.37482167E-08  6.57267065E-02  4.43501206E+01  1.05750570E-07  1.99835398E-05  7.26209064E+01  1.12957036E-12  4.31999995E-03
  4.90000000E-02  6.00083975E+00 -3.27339368E-06  8.73487174E-04  6.65674900E+00 -5.60829257E-08  6.57267065E-02  4.43504682E+01  1.05689446E-07  2.07364798E-05  7.26232627E+01  1.18016692E-12  4.31999995E-03
  5.00000000E-02  6.00085626E+00 -3.35955355E-06  9.15658263E-04  6.65685751E+00 -5.84291059E-08  6.57267065E-02  4.43509304E+01  1.05631481E-07  2.09483803E-05  7.26263595E+01  1.23434036E-12  4.31999995E-03
