 # time mean(w) mean(w**2)
  1.00000000E-03  6.00001687E+00 -2.63732178E-16 -2.67052006E-05  6.65176744E+00  7.34438630E-17  6.57267065E-02  4.43304428E+01  1.07636364E-07  2.04682099E-07  7.24860424E+01  4.16985644E-16  4.31999995E-03
  2.00000000E-03  6.00003372E+00 -8.61145646E-16 -4.81319484E-05  6.65186320E+00  3.00401997E-16  6.57267065E-02  4.43308071E+01  1.07614259E-07  4.34435992E-07  7.24886884E+01  1.66139505E-15  4.31999995E-03
  3.00000000E-03  6.00005054E+00 -1.72986264E-15 -6.48013985E-05  6.65195890E+00  6.91663804E-16  6.57267065E-02  4.43311708E+01  1.07590920E-07  7.29155883E-07  7.24913324E+01  3.72422411E-15  4.31999995E-03
  4.00000000E-03  6.00006730E+00 -2.93213443E-15 -7.71862818E-05  6.65205451E+00  1.25849811E-15  6.57267065E-02  4.43315335E+01  1.07566347E-07  1.04531392E-06  7.24939727E+01  6.59739125E-15  4.31999995E-03
  5.00000000E-03  6.00008394E+00 -5.04666747E-15 -8.57428959E-05  6.65214998E+00  2.01190068E-15  6.57267065E-02  4.43318949E+01  1.07540543E-07  1.35627155E-06  7.24966078E+01  1.02735522E-14  4.31999995E-03
  6.00000000E-03  6.00010045E+00 -7.77270862E-15 -9.08604586E-05  6.65224528E+00  2.96674047E-15  6.57267065E-02  4.43322547E+01  1.07513509E-07  1.64677322E-06  7.24992365E+01  1.47459510E-14  4.31999995E-03
  7.00000000E-03  6.00011682E+00 -1.11724323E-14 -9.28898858E-05  6.65234040E+00  4.14035460E-15  6.57267065E-02  4.43326128E+01  1.07485248E-07  1.90939983E-06  7.25018579E+01  2.00083128E-14  4.31999995E-03
  8.00000000E-03  6.00013306E+00 -1.52986664E-14 -9.21501387E-05  6.65243533E+00  5.55556116E-15  6.57267065E-02  4.43329693E+01  1.07455762E-07  2.14193728E-06  7.25044715E+01  2.60547601E-14  4.31999995E-03
  9.00000000E-03  6.00014917E+00 -2.03435223E-14 -8.89307438E-05  6.65253007E+00  7.23838439E-15  6.57267065E-02  4.43333240E+01  1.07425054E-07  2.34540855E-06  7.25070769E+01  3.28797463E-14  4.31999995E-03
  1.00000000E-02  6.00016515E+00 -2.65128179E-14 -8.34938282E-05  6.65262461E+00  9.20118622E-15  6.57267065E-02  4.43336771E+01  1.07393128E-07  2.52291489E-06  7.25096741E+01  4.04780063E-14  4.31999995E-03
  1.10000000E-02  6.00018103E+00 -3.37556046E-14 -7.60760645E-05  6.65271897E+00  1.14608748E-14  6.57267065E-02  4.43340285E+01  1.07359987E-07  2.67873970E-06  7.25122628E+01  4.88445133E-14  4.31999995E-03
  1.20000000E-02  6.00019679E+00 -4.20349113E-14 -6.68909276E-05  6.65281314E+00  1.40347601E-14  6.57267065E-02  4.43343783E+01  1.07325636E-07  2.81752752E-06  7.25148431E+01  5.79744488E-14  4.31999995E-03
  1.30000000E-02  6.00021244E+00 -5.13344566E-14 -5.61308887E-05  6.65290714E+00  1.69230876E-14  6.57267065E-02  4.43347266E+01  1.07290078E-07  2.94383386E-06  7.25174153E+01  6.78635953E-14  4.31999995E-03
  1.40000000E-02  6.00022800E+00 -6.16513089E-14 -4.39693628E-05  6.65300098E+00  2.03691745E-14  6.57267065E-02  4.43350735E+01  1.07253318E-07  3.06195057E-06  7.25199794E+01  7.85078531E-14  4.31999995E-03
  1.50000000E-02  6.00024347E+00 -7.29735102E-14 -3.05624071E-05  6.65309466E+00  2.41365120E-14  6.57267065E-02  4.43354190E+01  1.07215362E-07  3.17577152E-06  7.25225357E+01  8.99030817E-14  4.31999995E-03
  1.60000000E-02  6.00025886E+00 -8.52794849E-14 -1.60502435E-05  6.65318819E+00  2.82825662E-14  6.57267065E-02  4.43357633E+01  1.07176215E-07  3.28868970E-06  7.25250844E+01  1.02045299E-13  4.31999995E-03
  1.70000000E-02  6.00027417E+00 -9.85407096E-14 -5.58656431E-07  6.65328159E+00  3.40310572E-14  6.57267065E-02  4.43361064E+01  1.07135882E-07  3.40357348E-06  7.25276259E+01  1.14930976E-13  4.31999995E-03
  1.80000000E-02  6.00028940E+00 -1.12758697E-13  1.57997283E-05  6.65337487E+00  3.80843726E-14  6.57267065E-02  4.43364484E+01  1.07094370E-07  3.52277387E-06  7.25301603E+01  1.28557581E-13  4.31999995E-03
  1.90000000E-02  6.00030458E+00 -1.27897607E-13  3.29242704E-05  6.65346803E+00  4.16290096E-14  6.57267065E-02  4.43367895E+01  1.07051684E-07  3.64815383E-06  7.25326879E+01  1.42921790E-13  4.31999995E-03
  2.00000000E-02  6.00031969E+00 -1.43919648E-13  5.07252297E-05  6.65356110E+00  4.47173529E-14  6.57267065E-02  4.43371296E+01  1.07007832E-07  3.78114578E-06  7.25352090E+01  1.58020384E-13  4.31999995E-03
  2.10000000E-02  6.00033475E+00 -1.60787697E-13  6.91227730E-05  6.65365406E+00  4.75844491E-14  6.57267065E-02  4.43374688E+01  1.06962819E-07  3.92280172E-06  7.25377239E+01  1.73850218E-13  4.31999995E-03
  2.20000000E-02  6.00034976E+00 -1.78465026E-13  8.80460622E-05  6.65374694E+00  5.05499195E-14  6.57267065E-02  4.43378073E+01  1.06916655E-07  4.07382688E-06  7.25402328E+01  1.90408221E-13  4.31999995E-03
  2.30000000E-02  6.00036473E+00 -1.96914601E-13  1.07432414E-04  6.65383974E+00  5.39319995E-14  6.57267065E-02  4.43381450E+01  1.06869345E-07  4.23461263E-06  7.25427359E+01  2.07691399E-13  4.31999995E-03
  2.40000000E-02  6.00037966E+00 -2.16070195E-13  1.27226528E-04  6.65393247E+00  5.80207098E-14  6.57267065E-02  4.43384821E+01  1.06820899E-07  4.40530089E-06  7.25452336E+01  2.25696856E-13  4.31999995E-03
  2.50000000E-02  6.00039455E+00 -2.35896241E-13  1.47379764E-04  6.65402514E+00  6.30289174E-14  6.57267065E-02  4.43388187E+01  1.06771323E-07  4.58586933E-06  7.25477259E+01  2.44421725E-13  4.31999995E-03
  2.60000000E-02  6.00040941E+00 -2.56368878E-13  1.67849491E-04  6.65411775E+00  6.90170711E-14  6.57267065E-02  4.43391546E+01  1.06720626E-07  4.77615828E-06  7.25502131E+01  2.63863011E-13  4.31999995E-03
  2.70000000E-02  6.00042424E+00 -2.77467281E-13  1.88598482E-04  6.65421031E+00  7.60425434E-14  6.57267065E-02  4.43394901E+01  1.06668818E-07  4.97590180E-06  7.25526953E+01  2.84017807E-13  4.31999995E-03
  2.80000000E-02  6.00043904E+00 -2.99171703E-13  2.09594364E-04  6.65430282E+00  8.40910026E-14  6.57267065E-02  4.43398251E+01  1.06615906E-07  5.18474770E-06  7.25551727E+01  3.04883284E-13  4.31999995E-03
  2.90000000E-02  6.00045382E+00 -3.21402957E-13  2.30809124E-04  6.65439529E+00  9.31600371E-14  6.57267065E-02  4.43401597E+01  1.06561901E-07  5.40227707E-06  7.25576455E+01  3.26456655E-13  4.31999995E-03
  3.00000000E-02  6.00046858E+00 -3.44128701E-13  2.52218637E-04  6.65448772E+00  1.03242083E-13  6.57267065E-02  4.43404939E+01  1.06506811E-07  5.62802963E-06  7.25601136E+01  3.48735171E-13  4.31999995E-03
  3.10000000E-02  6.00048332E+00 -3.67336035E-13  2.73802238E-04  6.65458012E+00  1.14384122E-13  6.57267065E-02  4.43408277E+01  1.06450646E-07  5.86152958E-06  7.25625774E+01  3.71716114E-13  4.31999995E-03
  3.20000000E-02  6.00049804E+00 -3.91084074E-13  2.95542324E-04  6.65467248E+00  1.26648119E-13  6.57267065E-02  4.43411611E+01  1.06393416E-07  6.10230730E-06  7.25650367E+01  3.95396798E-13  4.31999995E-03
  3.30000000E-02  6.00051275E+00 -4.15362971E-13  3.17424012E-04  6.65476480E+00  1.40106540E-13  6.57267065E-02  4.43414942E+01  1.06335133E-07  6.34989505E-06  7.25674918E+01  4.19774566E-13  4.31999995E-03
  3.40000000E-02  6.00052744E+00 -4.40160242E-13  3.39434826E-04  6.65485710E+00  1.54746201E-13  6.57267065E-02  4.43418270E+01  1.06275805E-07  6.60384008E-06  7.25699426E+01  4.44846786E-13  4.31999995E-03
  3.50000000E-02  6.00054212E+00 -4.65468606E-13  3.61564395E-04  6.65494937E+00  1.70519330E-13  6.57267065E-02  4.43421595E+01  1.06215444E-07  6.86371093E-06  7.25723892E+01  4.70610850E-13  4.31999995E-03
  3.60000000E-02  6.00055679E+00 -4.91280103E-13  3.83804196E-04  6.65504162E+00  1.87273170E-13  6.57267065E-02  4.43424917E+01  1.06154060E-07  7.12910180E-06  7.25748316E+01  4.97064127E-13  4.31999995E-03
  3.70000000E-02  6.00057145E+00 -5.17588246E-13  4.06147305E-04  6.65513383E+00  2.04692760E-13  6.57267065E-02  4.43428235E+01  1.06091666E-07  7.39961997E-06  7.25772698E+01  5.24203273E-13  4.31999995E-03
  3.80000000E-02  6.00058609E+00 -5.44340786E-13  4.28588167E-04  6.65522602E+00  2.22569643E-13  6.57267065E-02  4.43431551E+01  1.06028272E-07  7.67488051E-06  7.25797038E+01  5.52025629E-13  4.31999995E-03
  3.90000000E-02  6.00060073E+00 -5.71369255E-13  4.51122429E-04  6.65531818E+00  2.40447532E-13  6.57267065E-02  4.43434864E+01  1.05963890E-07  7.95446588E-06  7.25821338E+01  5.80528412E-13  4.31999995E-03
  4.00000000E-02  6.00061536E+00 -5.98643594E-13  4.73746954E-04  6.65541032E+00  2.57822897E-13  6.57267065E-02  4.43438173E+01  1.05898532E-07  8.23807000E-06  7.25845596E+01  6.09708733E-13  4.31999995E-03
  4.10000000E-02  6.00062998E+00 -6.26250187E-13  4.96459869E-04  6.65550243E+00  2.73642575E-13  6.57267065E-02  4.43441480E+01  1.05832210E-07  8.52553438E-06  7.25869813E+01  6.39563771E-13  4.31999995E-03
  4.20000000E-02  6.00064459E+00 -6.54246559E-13  5.19260348E-04  6.65559451E+00  2.87917987E-13  6.57267065E-02  4.43444784E+01  1.05764937E-07  8.81669956E-06  7.25893988E+01  6.70090780E-13  4.31999995E-03
  4.30000000E-02  6.00065920E+00 -6.82675451E-13  5.42148366E-04  6.65568656E+00  3.01399072E-13  6.57267065E-02  4.43448084E+01  1.05696724E-07  9.11141146E-06  7.25918123E+01  7.01287056E-13  4.31999995E-03
  4.40000000E-02  6.00067379E+00 -7.11569855E-13  5.65124485E-04  6.65577859E+00  3.14604720E-13  6.57267065E-02  4.43451382E+01  1.05627586E-07  9.40934433E-06  7.25942214E+01  7.33149938E-13  4.31999995E-03
  4.50000000E-02  6.00068838E+00 -7.40959088E-13  5.88189670E-04  6.65587059E+00  3.27818832E-13  6.57267065E-02  4.43454676E+01  1.05557534E-07  9.71026172E-06  7.25966264E+01  7.65676794E-13  4.31999995E-03
  4.60000000E-02  6.00070297E+00 -7.70860864E-13  6.11345107E-04  6.65596256E+00  3.41292721E-13  6.57267065E-02  4.43457967E+01  1.05486582E-07  1.00140536E-05  7.25990270E+01  7.98865026E-13  4.31999995E-03
  4.70000000E-02  6.00071754E+00 -8.01280388E-13  6.34592046E-04  6.65605450E+00  3.55182152E-13  6.57267065E-02  4.43461254E+01  1.05414743E-07  1.03205936E-05  7.26014232E+01  8.32712062E-13  4.31999995E-03
  4.80000000E-02  6.00073211E+00 -8.32214542E-13  6.57931691E-04  6.65614640E+00  3.69587172E-13  6.57267065E-02  4.43464538E+01  1.05342032E-07  1.06297601E-05  7.26038152E+01  8.67215352E-13  4.31999995E-03
  4.90000000E-02  6.00074667E+00 -8.63653916E-13  6.81365103E-04  6.65623827E+00  3.84494561E-13  6.57267065E-02  4.43467819E+01  1.05268461E-07  1.09414321E-05  7.26062026E+01  9.02372370E-13  4.31999995E-03
  5.00000000E-02  6.00076123E+00 -8.95580860E-13  7.04893134E-04  6.65633011E+00  3.99942906E-13  6.57267065E-02  4.43471095E+01  1.05194044E-07  1.12554896E-05  7.26085857E+01  9.38180605E-13  4.31999995E-03
