 # time mean(w) mean(w**2)
  1.00000000E-03  5.99999996E+00 -9.94832291E-16 -2.87930060E-05  6.65176586E+00 -1.37488267E-15  6.57267065E-02  4.43300648E+01  1.07635334E-07  2.15676084E-07  7.24859998E+01  4.14519307E-16  4.31999995E-03
  2.00000000E-03  5.99999977E+00 -4.13910442E-15 -5.65717643E-05  6.65185424E+00 -2.93803395E-15  6.57267065E-02  4.43300523E+01  1.07612239E-07  5.24541344E-07  7.24883962E+01  1.65242901E-15  4.31999995E-03
  3.00000000E-03  5.99999854E+00 -2.19227080E-14 -8.15305422E-05  6.65193444E+00 -5.99596979E-15  6.57267065E-02  4.43300203E+01  1.07587948E-07  9.81489924E-07  7.24904997E+01  3.70584182E-15  4.31999995E-03
  4.00000000E-03  5.99999671E+00 -4.52793456E-14 -1.04912232E-04  6.65200830E+00 -1.04527585E-14  6.57267065E-02  4.43299779E+01  1.07562457E-07  1.56037376E-06  7.24923761E+01  6.56755884E-15  4.31999995E-03
  5.00000000E-03  5.99999446E+00 -7.11500764E-14 -1.27179357E-04  6.65207692E+00 -1.61790301E-14  6.57267065E-02  4.43299285E+01  1.07535765E-07  2.17131919E-06  7.24940627E+01  1.02309635E-14  4.31999995E-03
  6.00000000E-03  5.99999186E+00 -9.89757818E-14 -1.49150023E-04  6.65214074E+00 -2.30115182E-14  6.57267065E-02  4.43298740E+01  1.07507871E-07  2.83865355E-06  7.24955776E+01  1.46899259E-14  4.31999995E-03
  7.00000000E-03  5.99998894E+00 -1.28851045E-13 -1.70704852E-04  6.65220037E+00 -3.08377540E-14  6.57267065E-02  4.43298146E+01  1.07478776E-07  3.55337491E-06  7.24969428E+01  1.99387306E-14  4.31999995E-03
  8.00000000E-03  5.99998574E+00 -1.60754448E-13 -1.91842447E-04  6.65225631E+00 -3.95447875E-14  6.57267065E-02  4.43297508E+01  1.07448479E-07  4.30195998E-06  7.24981769E+01  2.59720155E-14  4.31999995E-03
  9.00000000E-03  5.99998228E+00 -1.94626953E-13 -2.12549896E-04  6.65230902E+00 -4.90267478E-14  6.57267065E-02  4.43296833E+01  1.07416982E-07  5.07194464E-06  7.24992966E+01  3.27847203E-14  4.31999995E-03
  1.00000000E-02  5.99997860E+00 -2.30397005E-13 -2.32803985E-04  6.65235893E+00 -5.91869782E-14  6.57267065E-02  4.43296124E+01  1.07384286E-07  5.85205035E-06  7.25003171E+01  4.03720437E-14  4.31999995E-03
  1.10000000E-02  5.99997471E+00 -2.68209685E-13 -2.52567211E-04  6.65240640E+00 -6.99542134E-14  6.57267065E-02  4.43295387E+01  1.07350394E-07  6.63278072E-06  7.25012519E+01  4.87294078E-14  4.31999995E-03
  1.20000000E-02  5.99997065E+00 -3.08255953E-13 -2.71772066E-04  6.65245179E+00 -8.12742018E-14  6.57267065E-02  4.43294625E+01  1.07315308E-07  7.41801296E-06  7.25021138E+01  5.78524270E-14  4.31999995E-03
  1.30000000E-02  5.99996644E+00 -3.50890193E-13 -2.90264430E-04  6.65249545E+00 -9.31205390E-14  6.57267065E-02  4.43293841E+01  1.07279033E-07  8.19967867E-06  7.25029152E+01  6.77368850E-14  4.31999995E-03
  1.40000000E-02  5.99996209E+00 -3.95701588E-13 -3.07904950E-04  6.65253767E+00 -1.05419494E-13  6.57267065E-02  4.43293040E+01  1.07241571E-07  8.96528160E-06  7.25036673E+01  7.83787138E-14  4.31999995E-03
  1.50000000E-02  5.99995762E+00 -4.42329690E-13 -3.24574124E-04  6.65257875E+00 -1.18102028E-13  6.57267065E-02  4.43292223E+01  1.07202927E-07  9.70252749E-06  7.25043803E+01  8.97739760E-14  4.31999995E-03
  1.60000000E-02  5.99995306E+00 -4.90272111E-13 -3.40176337E-04  6.65261894E+00 -1.31109668E-13  6.57267065E-02  4.43291395E+01  1.07163106E-07  1.04001856E-05  7.25050628E+01  1.01918850E-13  4.31999995E-03
  1.70000000E-02  5.99994841E+00 -5.38924600E-13 -3.54644184E-04  6.65265844E+00 -1.44393425E-13  6.57267065E-02  4.43290558E+01  1.07122112E-07  1.10523427E-05  7.25057224E+01  1.14809618E-13  4.31999995E-03
  1.80000000E-02  5.99994369E+00 -5.87557843E-13 -3.67946144E-04  6.65269743E+00 -1.57913380E-13  6.57267065E-02  4.43289714E+01  1.07079950E-07  1.16524199E-05  7.25063650E+01  1.28442654E-13  4.31999995E-03
  1.90000000E-02  5.99993892E+00 -6.36082504E-13 -3.80076975E-04  6.65273605E+00 -1.71612909E-13  6.57267065E-02  4.43288865E+01  1.07036627E-07  1.21939908E-05  7.25069954E+01  1.42814414E-13  4.31999995E-03
  2.00000000E-02  5.99993410E+00 -6.84438039E-13 -3.91055516E-04  6.65277440E+00 -1.85437932E-13  6.57267065E-02  4.43288013E+01  1.06992149E-07  1.26728189E-05  7.25076179E+01  1.57921431E-13  4.31999995E-03
  2.10000000E-02  5.99992924E+00 -7.32591948E-13 -4.00922381E-04  6.65281260E+00 -1.99337021E-13  6.57267065E-02  4.43287160E+01  1.06946521E-07  1.30868686E-05  7.25082354E+01  1.73760303E-13  4.31999995E-03
  2.20000000E-02  5.99992436E+00 -7.80538706E-13 -4.09737276E-04  6.65285069E+00 -2.13261184E-13  6.57267065E-02  4.43286307E+01  1.06899751E-07  1.34361587E-05  7.25088504E+01  1.90327689E-13  4.31999995E-03
  2.30000000E-02  5.99991946E+00 -8.28297455E-13 -4.17575917E-04  6.65288873E+00 -2.27164127E-13  6.57267065E-02  4.43285456E+01  1.06851845E-07  1.37229009E-05  7.25094645E+01  2.07620310E-13  4.31999995E-03
  2.40000000E-02  5.99991455E+00 -8.75909312E-13 -4.24526770E-04  6.65292676E+00 -2.41002521E-13  6.57267065E-02  4.43284607E+01  1.06802811E-07  1.39508710E-05  7.25100786E+01  2.25634935E-13  4.31999995E-03
  2.50000000E-02  5.99990963E+00 -9.23434158E-13 -4.30687710E-04  6.65296478E+00 -2.54736370E-13  6.57267065E-02  4.43283763E+01  1.06752657E-07  1.41252048E-05  7.25106934E+01  2.44368384E-13  4.31999995E-03
  2.60000000E-02  5.99990471E+00 -9.70946942E-13 -4.36162750E-04  6.65300281E+00 -2.68329163E-13  6.57267065E-02  4.43282923E+01  1.06701389E-07  1.42520489E-05  7.25113089E+01  2.63817517E-13  4.31999995E-03
  2.70000000E-02  5.99989980E+00 -1.01853414E-12 -4.41058905E-04  6.65304082E+00 -2.81747940E-13  6.57267065E-02  4.43282088E+01  1.06649018E-07  1.43382074E-05  7.25119247E+01  2.83979240E-13  4.31999995E-03
  2.80000000E-02  5.99989489E+00 -1.06629026E-12 -4.45483268E-04  6.65307882E+00 -2.94963333E-13  6.57267065E-02  4.43281258E+01  1.06595550E-07  1.43908074E-05  7.25125402E+01  3.04850492E-13  4.31999995E-03
  2.90000000E-02  5.99988999E+00 -1.11431379E-12 -4.49540345E-04  6.65311677E+00 -3.07949524E-13  6.57267065E-02  4.43280434E+01  1.06540995E-07  1.44169982E-05  7.25131547E+01  3.26428252E-13  4.31999995E-03
  3.00000000E-02  5.99988510E+00 -1.16270407E-12 -4.53329720E-04  6.65315466E+00 -3.20684284E-13  6.57267065E-02  4.43279615E+01  1.06485362E-07  1.44236958E-05  7.25137673E+01  3.48709530E-13  4.31999995E-03
  3.10000000E-02  5.99988022E+00 -1.21155820E-12 -4.56944067E-04  6.65319245E+00 -3.33148832E-13  6.57267065E-02  4.43278802E+01  1.06428660E-07  1.44173769E-05  7.25143768E+01  3.71691367E-13  4.31999995E-03
  3.20000000E-02  5.99987535E+00 -1.26096813E-12 -4.60467536E-04  6.65323012E+00 -3.45327662E-13  6.57267065E-02  4.43277994E+01  1.06370900E-07  1.44039255E-05  7.25149824E+01  3.95370834E-13  4.31999995E-03
  3.30000000E-02  5.99987048E+00 -1.31101813E-12 -4.63974528E-04  6.65326763E+00 -3.57208336E-13  6.57267065E-02  4.43277191E+01  1.06312090E-07  1.43885290E-05  7.25155831E+01  4.19745029E-13  4.31999995E-03
  3.40000000E-02  5.99986563E+00 -1.36178314E-12 -4.67528836E-04  6.65330496E+00 -3.68781103E-13  6.57267065E-02  4.43276392E+01  1.06252242E-07  1.43756190E-05  7.25161779E+01  4.44811078E-13  4.31999995E-03
  3.50000000E-02  5.99986078E+00 -1.41332691E-12 -4.71183159E-04  6.65334210E+00 -3.80038749E-13  6.57267065E-02  4.43275598E+01  1.06191365E-07  1.43688500E-05  7.25167661E+01  4.70566129E-13  4.31999995E-03
  3.60000000E-02  5.99985593E+00 -1.46570090E-12 -4.74978955E-04  6.65337901E+00 -3.90975928E-13  6.57267065E-02  4.43274808E+01  1.06129471E-07  1.43711092E-05  7.25173470E+01  4.97007356E-13  4.31999995E-03
  3.70000000E-02  5.99985109E+00 -1.51894396E-12 -4.78946598E-04  6.65341569E+00 -4.01589675E-13  6.57267065E-02  4.43274021E+01  1.06066571E-07  1.43845492E-05  7.25179201E+01  5.24131955E-13  4.31999995E-03
  3.80000000E-02  5.99984625E+00 -1.57308158E-12 -4.83105818E-04  6.65345212E+00 -4.11878923E-13  6.57267065E-02  4.43273237E+01  1.06002676E-07  1.44106383E-05  7.25184850E+01  5.51937143E-13  4.31999995E-03
  3.90000000E-02  5.99984141E+00 -1.62812645E-12 -4.87466374E-04  6.65348829E+00 -4.21844022E-13  6.57267065E-02  4.43272456E+01  1.05937797E-07  1.44502207E-05  7.25190416E+01  5.80420159E-13  4.31999995E-03
  4.00000000E-02  5.99983657E+00 -1.68407887E-12 -4.92028913E-04  6.65352421E+00 -4.31486342E-13  6.57267065E-02  4.43271677E+01  1.05871947E-07  1.45035832E-05  7.25195898E+01  6.09578260E-13  4.31999995E-03
  4.10000000E-02  5.99983173E+00 -1.74092743E-12 -4.96785992E-04  6.65355987E+00 -4.40808136E-13  6.57267065E-02  4.43270900E+01  1.05805138E-07  1.45705252E-05  7.25201297E+01  6.39408725E-13  4.31999995E-03
  4.20000000E-02  5.99982689E+00 -1.79865011E-12 -5.01723194E-04  6.65359528E+00 -4.49807331E-13  6.57267065E-02  4.43270124E+01  1.05737382E-07  1.46504279E-05  7.25206616E+01  6.69908850E-13  4.31999995E-03
  4.30000000E-02  5.99982204E+00 -1.85721599E-12 -5.06820320E-04  6.65363046E+00 -4.58479075E-13  6.57267065E-02  4.43269349E+01  1.05668691E-07  1.47423234E-05  7.25211858E+01  7.01075949E-13  4.31999995E-03
  4.40000000E-02  5.99981718E+00 -1.91658641E-12 -5.12052605E-04  6.65366540E+00 -4.66827471E-13  6.57267065E-02  4.43268575E+01  1.05599078E-07  1.48449607E-05  7.25217028E+01  7.32907353E-13  4.31999995E-03
  4.50000000E-02  5.99981232E+00 -1.97671550E-12 -5.17391922E-04  6.65370012E+00 -4.74856041E-13  6.57267065E-02  4.43267802E+01  1.05528557E-07  1.49568698E-05  7.25222132E+01  7.65400412E-13  4.31999995E-03
  4.60000000E-02  5.99980746E+00 -2.03755279E-12 -5.22807953E-04  6.65373466E+00 -4.82559021E-13  6.57267065E-02  4.43267030E+01  1.05457139E-07  1.50764224E-05  7.25227175E+01  7.98552490E-13  4.31999995E-03
  4.70000000E-02  5.99980259E+00 -2.09904459E-12 -5.28269289E-04  6.65376901E+00 -4.89933015E-13  6.57267065E-02  4.43266258E+01  1.05384840E-07  1.52018906E-05  7.25232164E+01  8.32360968E-13  4.31999995E-03
  4.80000000E-02  5.99979771E+00 -2.16113533E-12 -5.33744438E-04  6.65380320E+00 -4.96981011E-13  6.57267065E-02  4.43265486E+01  1.05311671E-07  1.53315009E-05  7.25237107E+01  8.66823244E-13  4.31999995E-03
  4.90000000E-02  5.99979283E+00 -2.22376906E-12 -5.39202731E-04  6.65383725E+00 -5.03704794E-13  6.57267065E-02  4.43264715E+01  1.05237647E-07  1.54634861E-05  7.25242011E+01  9.01936729E-13  4.31999995E-03
  5.00000000E-02  5.99978794E+00 -2.28689071E-12 -5.44615103E-04  6.65387117E+00 -5.10105229E-13  6.57267065E-02  4.43263944E+01  1.05162782E-07  1.55961320E-05  7.25246882E+01  9.37698851E-13  4.31999995E-03
