 # time mean(w) mean(w**2)
  1.00000000E-03  6.00001514E+00 -3.95801556E-16 -2.86579517E-05  6.65171719E+00  7.99588444E-17  6.57267065E-02  4.19924415E-22  4.43304334E+01  1.07636327E-07  2.14697154E-07  7.24850229E+01  4.11200117E-16  4.31999995E-03  6.49223433E-25
  2.00000000E-03  6.00003026E+00 -1.57577944E-15 -5.33705932E-05  6.65176261E+00  3.34830169E-16  6.57267065E-02  1.90333272E-21  4.43307878E+01  1.07614185E-07  4.91807364E-07  7.24866468E+01  1.64032241E-15  4.31999995E-03  9.56690083E-24
  3.00000000E-03  6.00004531E+00 -3.47305644E-15 -7.34950380E-05  6.65180781E+00  7.96203707E-16  6.57267065E-02 -4.20836444E-20  4.43311403E+01  1.07590809E-07  8.71344121E-07  7.24882632E+01  3.68098140E-15  4.31999995E-03  4.55379669E-23
  4.00000000E-03  6.00006024E+00 -6.31638567E-15 -8.96530631E-05  6.65185269E+00  1.46053149E-15  6.57267065E-02 -9.30775256E-20  4.43314900E+01  1.07566200E-07  1.30880511E-06  7.24898675E+01  6.52718455E-15  4.31999995E-03  1.35981231E-22
  5.00000000E-03  6.00007505E+00 -9.84562186E-15 -1.02269044E-04  6.65189719E+00  2.33359980E-15  6.57267065E-02  8.50368948E-20  4.43318364E+01  1.07540359E-07  1.76359432E-06  7.24914571E+01  1.01732861E-14  4.31999995E-03  3.15514113E-22
  6.00000000E-03  6.00008973E+00 -1.32172060E-14 -1.11705431E-04  6.65194131E+00  3.42756621E-15  6.57267065E-02 -1.11278489E-19  4.43321794E+01  1.07513288E-07  2.16467485E-06  7.24930303E+01  1.46139745E-14  4.31999995E-03  6.25341746E-22
  7.00000000E-03  6.00010431E+00 -1.50400345E-14 -1.18402878E-04  6.65198511E+00  4.76025731E-15  6.57267065E-02 -1.89145873E-18  4.43325198E+01  1.07484990E-07  2.54545966E-06  7.24945909E+01  1.98441256E-14  4.31999995E-03  1.11155677E-21
  8.00000000E-03  6.00011878E+00 -1.55414915E-14 -1.22579827E-04  6.65202858E+00  6.33937767E-15  6.57267065E-02 -7.22024966E-18  4.43328573E+01  1.07455467E-07  2.89993404E-06  7.24961381E+01  2.58588749E-14  4.31999995E-03  1.82306232E-21
  9.00000000E-03  6.00013314E+00 -1.49334574E-14 -1.24447573E-04  6.65207170E+00  8.17123295E-15  6.57267065E-02 -1.88795125E-17  4.43331920E+01  1.07424723E-07  3.22552992E-06  7.24976715E+01  3.26535596E-14  4.31999995E-03  2.80881261E-21
  1.00000000E-02  6.00014738E+00 -1.34204262E-14 -1.24206433E-04  6.65211447E+00  1.02624666E-14  6.57267065E-02 -4.14590922E-17  4.43335238E+01  1.07392759E-07  3.52225818E-06  7.24991906E+01  4.02236960E-14  4.31999995E-03  4.11637360E-21
  1.10000000E-02  6.00016151E+00 -1.11970934E-14 -1.22045355E-04  6.65215691E+00  1.26200466E-14  6.57267065E-02 -7.89140815E-17  4.43338527E+01  1.07359581E-07  3.79187310E-06  7.25006956E+01  4.85649600E-14  4.31999995E-03  5.79177821E-21
  1.20000000E-02  6.00017554E+00 -8.44696040E-15 -1.18141730E-04  6.65219900E+00  1.52511935E-14  6.57267065E-02 -1.34511407E-16  4.43341788E+01  1.07325191E-07  4.03722710E-06  7.25021866E+01  5.76731693E-14  4.31999995E-03  7.87988497E-21
  1.30000000E-02  6.00018947E+00 -5.34094705E-15 -1.12661387E-04  6.65224078E+00  1.81630206E-14  6.57267065E-02 -2.11239947E-16  4.43345024E+01  1.07289595E-07  4.26178176E-06  7.25036639E+01  6.75442692E-14  4.31999995E-03  1.04230897E-20
  1.40000000E-02  6.00020330E+00 -2.03561668E-15 -1.05758709E-04  6.65228225E+00  2.13616187E-14  6.57267065E-02 -3.11373686E-16  4.43348234E+01  1.07252797E-07  4.46924573E-06  7.25051280E+01  7.81743192E-14  4.31999995E-03  1.34607367E-20
  1.50000000E-02  6.00021704E+00  1.32521580E-15 -9.75768761E-05  6.65232344E+00  2.48553217E-14  6.57267065E-02 -4.36259247E-16  4.43351420E+01  1.07214803E-07  4.66331478E-06  7.25065794E+01  8.95594818E-14  4.31999995E-03  1.70288368E-20
  1.60000000E-02  6.00023071E+00  4.61265683E-15 -8.82481849E-05  6.65236436E+00  2.86522178E-14  6.57267065E-02 -5.85705249E-16  4.43354584E+01  1.07175616E-07  4.84749261E-06  7.25080186E+01  1.01696013E-13  4.31999995E-03  2.11602391E-20
  1.70000000E-02  6.00024430E+00  7.71075550E-15 -7.78944382E-05  6.65240503E+00  3.27598795E-14  6.57267065E-02 -7.57686223E-16  4.43357728E+01  1.07135244E-07  5.02497491E-06  7.25094465E+01  1.14580254E-13  4.31999995E-03  2.58857892E-20
  1.80000000E-02  6.00025782E+00  1.05184868E-14 -6.65805410E-05  6.65244548E+00  3.71865931E-14  6.57267065E-02 -9.48664265E-16  4.43360853E+01  1.07093691E-07  5.19722059E-06  7.25108636E+01  1.28208624E-13  4.31999995E-03  3.12362219E-20
  1.90000000E-02  6.00027129E+00  1.30785546E-14 -5.42183085E-05  6.65248573E+00  4.19439275E-14  6.57267065E-02 -1.15528351E-15  4.43363961E+01  1.07050965E-07  5.36116331E-06  7.25122706E+01  1.42577610E-13  4.31999995E-03  3.72431282E-20
  2.00000000E-02  6.00028471E+00  1.54816074E-14 -4.08888701E-05  6.65252579E+00  4.70432577E-14  6.57267065E-02 -1.37314524E-15  4.43367053E+01  1.07007072E-07  5.51922524E-06  7.25136682E+01  1.57683770E-13  4.31999995E-03  4.39355068E-20
  2.10000000E-02  6.00029809E+00  1.77969347E-14 -2.66900536E-05  6.65256570E+00  5.24815620E-14  6.57267065E-02 -1.59621976E-15  4.43370133E+01  1.06962019E-07  5.67413243E-06  7.25150572E+01  1.73523717E-13  4.31999995E-03  5.13374781E-20
  2.20000000E-02  6.00031144E+00  2.00924437E-14 -1.17138853E-05  6.65260547E+00  5.82648031E-14  6.57267065E-02 -1.81993069E-15  4.43373200E+01  1.06915812E-07  5.82816487E-06  7.25164382E+01  1.90094116E-13  4.31999995E-03  5.94674134E-20
  2.30000000E-02  6.00032476E+00  2.24230447E-14  3.95337009E-06  6.65264513E+00  6.44105834E-14  6.57267065E-02 -2.04077408E-15  4.43376258E+01  1.06868460E-07  5.98349381E-06  7.25178120E+01  2.07391694E-13  4.31999995E-03  6.83383599E-20
  2.40000000E-02  6.00033807E+00  2.48357604E-14  2.02311361E-05  6.65268469E+00  7.09338565E-14  6.57267065E-02 -2.25520691E-15  4.43379307E+01  1.06819971E-07  6.14180904E-06  7.25191792E+01  2.25413219E-13  4.31999995E-03  7.79572604E-20
  2.50000000E-02  6.00035136E+00  2.73743837E-14  3.70444655E-05  6.65272419E+00  7.78440457E-14  6.57267065E-02 -2.45945402E-15  4.43382350E+01  1.06770351E-07  6.30446387E-06  7.25205406E+01  2.44155504E-13  4.31999995E-03  8.83239653E-20
  2.60000000E-02  6.00036466E+00  3.00706183E-14  5.43239168E-05  6.65276362E+00  8.51647310E-14  6.57267065E-02 -2.64536112E-15  4.43385387E+01  1.06719611E-07  6.47250102E-06  7.25218967E+01  2.63615404E-13  4.31999995E-03  9.94339489E-20
  2.70000000E-02  6.00037796E+00  3.29505123E-14  7.20054154E-05  6.65280302E+00  9.28908455E-14  6.57267065E-02 -2.80714889E-15  4.43388421E+01  1.06667757E-07  6.64668321E-06  7.25232482E+01  2.83789814E-13  4.31999995E-03  1.11278247E-19
  2.80000000E-02  6.00039127E+00  3.60414507E-14  9.00301035E-05  6.65284240E+00  1.01017071E-13  6.57267065E-02 -2.94330710E-15  4.43391452E+01  1.06614800E-07  6.82752652E-06  7.25245957E+01  3.04675667E-13  4.31999995E-03  1.23843506E-19
  2.90000000E-02  6.00040459E+00  3.93533450E-14  1.08344179E-04  6.65288178E+00  1.09557645E-13  6.57267065E-02 -3.05205112E-15  4.43394483E+01  1.06560748E-07  7.01533443E-06  7.25259397E+01  3.26269932E-13  4.31999995E-03  1.37114833E-19
  3.00000000E-02  6.00041794E+00  4.29096591E-14  1.26898721E-04  6.65292117E+00  1.18530350E-13  6.57267065E-02 -3.13182929E-15  4.43397513E+01  1.06505611E-07  7.21023141E-06  7.25272807E+01  3.48569610E-13  4.31999995E-03  1.51076618E-19
  3.10000000E-02  6.00043131E+00  4.66718407E-14  1.45649499E-04  6.65296057E+00  1.27957598E-13  6.57267065E-02 -3.18324010E-15  4.43400545E+01  1.06449398E-07  7.41219483E-06  7.25286191E+01  3.71571731E-13  4.31999995E-03  1.65711353E-19
  3.20000000E-02  6.00044472E+00  5.06685216E-14  1.64556801E-04  6.65300002E+00  1.37859628E-13  6.57267065E-02 -3.20704615E-15  4.43403578E+01  1.06392120E-07  7.62108453E-06  7.25299553E+01  3.95273357E-13  4.31999995E-03  1.80998646E-19
  3.30000000E-02  6.00045815E+00  5.49349520E-14  1.83585182E-04  6.65303950E+00  1.48268396E-13  6.57267065E-02 -3.20315842E-15  4.43406614E+01  1.06333786E-07  7.83666974E-06  7.25312898E+01  4.19671576E-13  4.31999995E-03  1.96922927E-19
  3.40000000E-02  6.00047162E+00  5.94692481E-14  2.02703304E-04  6.65307904E+00  1.59222296E-13  6.57267065E-02 -3.17086371E-15  4.43409653E+01  1.06274407E-07  8.05865260E-06  7.25326228E+01  4.44763503E-13  4.31999995E-03  2.13468732E-19
  3.50000000E-02  6.00048513E+00  6.42802371E-14  2.21883705E-04  6.65311864E+00  1.70720277E-13  6.57267065E-02 -3.11070337E-15  4.43412697E+01  1.06213994E-07  8.28668872E-06  7.25339546E+01  4.70546279E-13  4.31999995E-03  2.30621787E-19
  3.60000000E-02  6.00049868E+00  6.93833554E-14  2.41102574E-04  6.65315831E+00  1.82676174E-13  6.57267065E-02 -3.02246413E-15  4.43415745E+01  1.06152557E-07  8.52040446E-06  7.25352853E+01  4.97017070E-13  4.31999995E-03  2.48367641E-19
  3.70000000E-02  6.00051228E+00  7.48271571E-14  2.60339530E-04  6.65319804E+00  1.95052447E-13  6.57267065E-02 -2.90846128E-15  4.43418797E+01  1.06090108E-07  8.75941149E-06  7.25366152E+01  5.24173062E-13  4.31999995E-03  2.66692588E-19
  3.80000000E-02  6.00052591E+00  8.06652063E-14  2.79577389E-04  6.65323785E+00  2.07850114E-13  6.57267065E-02 -2.77074015E-15  4.43421855E+01  1.06026658E-07  9.00332271E-06  7.25379445E+01  5.52011465E-13  4.31999995E-03  2.85584764E-19
  3.90000000E-02  6.00053959E+00  8.68715139E-14  2.98801940E-04  6.65327773E+00  2.21104539E-13  6.57267065E-02 -2.61290903E-15  4.43424918E+01  1.05962218E-07  9.25175923E-06  7.25392732E+01  5.80529510E-13  4.31999995E-03  3.05032970E-19
  4.00000000E-02  6.00055331E+00  9.34051194E-14  3.18001712E-04  6.65331769E+00  2.34854736E-13  6.57267065E-02 -2.43344984E-15  4.43427986E+01  1.05896801E-07  9.50434856E-06  7.25406013E+01  6.09724448E-13  4.31999995E-03  3.25027265E-19
  4.10000000E-02  6.00056708E+00  1.00264677E-13  3.37167746E-04  6.65335773E+00  2.49115490E-13  6.57267065E-02 -2.22686726E-15  4.43431060E+01  1.05830418E-07  9.76073415E-06  7.25419290E+01  6.39593549E-13  4.31999995E-03  3.45559716E-19
  4.20000000E-02  6.00058089E+00  1.07423628E-13  3.56293374E-04  6.65339785E+00  2.63907611E-13  6.57267065E-02 -2.00121558E-15  4.43434139E+01  1.05763082E-07  1.00205793E-05  7.25432562E+01  6.70134104E-13  4.31999995E-03  3.66623871E-19
  4.30000000E-02  6.00059474E+00  1.14899726E-13  3.75373992E-04  6.65343804E+00  2.79221726E-13  6.57267065E-02 -1.75189468E-15  4.43437223E+01  1.05694806E-07  1.02835690E-05  7.25445828E+01  7.01343421E-13  4.31999995E-03  3.88214016E-19
  4.40000000E-02  6.00060864E+00  1.22746923E-13  3.94406847E-04  6.65347830E+00  2.95046017E-13  6.57267065E-02 -1.47272906E-15  4.43440312E+01  1.05625601E-07  1.05494106E-05  7.25459089E+01  7.33218827E-13  4.31999995E-03  4.10325463E-19
  4.50000000E-02  6.00062258E+00  1.30981620E-13  4.13390824E-04  6.65351863E+00  3.11379269E-13  6.57267065E-02 -1.16461171E-15  4.43443407E+01  1.05555481E-07  1.08178338E-05  7.25472344E+01  7.65757665E-13  4.31999995E-03  4.32953445E-19
  4.60000000E-02  6.00063655E+00  1.39469305E-13  4.32326251E-04  6.65355904E+00  3.28204915E-13  6.57267065E-02 -8.35010701E-16  4.43446505E+01  1.05484458E-07  1.10885826E-05  7.25485592E+01  7.98957296E-13  4.31999995E-03  4.56094339E-19
  4.70000000E-02  6.00065057E+00  1.48017544E-13  4.51214730E-04  6.65359950E+00  3.45522432E-13  6.57267065E-02 -4.72800848E-16  4.43449609E+01  1.05412546E-07  1.13612829E-05  7.25498831E+01  8.32815098E-13  4.31999995E-03  4.79744607E-19
  4.80000000E-02  6.00066462E+00  1.56091805E-13  4.70059034E-04  6.65364003E+00  3.63360659E-13  6.57267065E-02 -8.38823557E-17  4.43452716E+01  1.05339759E-07  1.16355375E-05  7.25512060E+01  8.67328463E-13  4.31999995E-03  5.03896797E-19
  4.90000000E-02  6.00067870E+00  1.62982213E-13  4.88862871E-04  6.65368061E+00  3.81712014E-13  6.57267065E-02  3.25753418E-16  4.43455827E+01  1.05266108E-07  1.19111717E-05  7.25525279E+01  9.02494798E-13  4.31999995E-03  5.28545763E-19
  5.00000000E-02  6.00069282E+00  1.68327198E-13  5.07630615E-04  6.65372124E+00  4.00566731E-13  6.57267065E-02  7.45593373E-16  4.43458940E+01  1.05191609E-07  1.21880994E-05  7.25538484E+01  9.38311524E-13  4.31999995E-03  5.53685383E-19
