# time mean(w) mean(w**2)
  1.00000000E-03  6.00001514E+00 -3.95909976E-16 -2.86246208E-05  6.65176628E+00  7.99600780E-17  6.57267065E-02 -4.38336813E-22  4.43304334E+01  1.07636327E-07  2.14702938E-07  7.24860135E+01  4.11200179E-16  4.31999995E-03  6.58167113E-25
  2.00000000E-03  6.00003026E+00 -1.57588786E-15 -5.32346397E-05  6.65186078E+00  3.34835593E-16  6.57267065E-02 -2.21036795E-22  4.43307877E+01  1.07614185E-07  4.91774867E-07  7.24886280E+01  1.64032290E-15  4.31999995E-03  9.78120659E-24
  3.00000000E-03  6.00004530E+00 -3.47298416E-15 -7.31915716E-05  6.65195509E+00  7.96217974E-16  6.57267065E-02 -7.10334233E-20  4.43311402E+01  1.07590809E-07  8.71170652E-07  7.24912351E+01  3.68098297E-15  4.31999995E-03  4.67670950E-23
  4.00000000E-03  6.00006024E+00 -6.31579388E-15 -8.91255250E-05  6.65204908E+00  1.46057688E-15  6.57267065E-02 -2.81563603E-19  4.43314899E+01  1.07566200E-07  1.30847385E-06  7.24938303E+01  6.52718806E-15  4.31999995E-03  1.39742738E-22
  5.00000000E-03  6.00007506E+00 -9.84080168E-15 -1.01469745E-04  6.65214270E+00  2.33367624E-15  6.57267065E-02 -9.97747872E-19  4.43318364E+01  1.07540359E-07  1.76330727E-06  7.24964113E+01  1.01732924E-14  4.31999995E-03  3.23749727E-22
  6.00000000E-03  6.00008975E+00 -1.32048506E-14 -1.10594522E-04  6.65223596E+00  3.42760756E-15  6.57267065E-02 -2.90678252E-18  4.43321795E+01  1.07513289E-07  2.16487532E-06  7.24989760E+01  1.46139846E-14  4.31999995E-03  6.39747454E-22
  7.00000000E-03  6.00010434E+00 -1.50477955E-14 -1.16943784E-04  6.65232891E+00  4.76005633E-15  6.57267065E-02 -7.50428825E-18  4.43325200E+01  1.07484992E-07  2.54671266E-06  7.25015287E+01  1.98441403E-14  4.31999995E-03  1.13357360E-21
  8.00000000E-03  6.00011882E+00 -1.56134645E-14 -1.20738549E-04  6.65242155E+00  6.33842532E-15  6.57267065E-02 -1.65829993E-17  4.43328578E+01  1.07455470E-07  2.90287080E-06  7.25040684E+01  2.58588947E-14  4.31999995E-03  1.85405484E-21
  9.00000000E-03  6.00013320E+00 -1.51241957E-14 -1.22192025E-04  6.65251385E+00  8.16865622E-15  6.57267065E-02 -3.33494926E-17  4.43331928E+01  1.07424726E-07  3.23080374E-06  7.25065946E+01  3.26535847E-14  4.31999995E-03  2.85090364E-21
  1.00000000E-02  6.00014747E+00 -1.37885941E-14 -1.21505670E-04  6.65260583E+00  1.02570032E-14  6.57267065E-02 -6.16979087E-17  4.43335250E+01  1.07392764E-07  3.53049633E-06  7.25091071E+01  4.02237265E-14  4.31999995E-03  4.17390676E-21
  1.10000000E-02  6.00016164E+00 -1.17993406E-14 -1.18868763E-04  6.65269748E+00  1.26100608E-14  6.57267065E-02 -1.05517760E-16  4.43338544E+01  1.07359587E-07  3.80363065E-06  7.25116059E+01  4.85649955E-14  4.31999995E-03  5.87319822E-21
  1.20000000E-02  6.00017570E+00 -9.33364804E-15 -1.14458232E-04  6.65278880E+00  1.52347600E-14  6.57267065E-02 -1.68407352E-16  4.43341811E+01  1.07325199E-07  4.05294696E-06  7.25140910E+01  5.76732091E-14  4.31999995E-03  7.99835652E-21
  1.30000000E-02  6.00018966E+00 -6.55163948E-15 -1.08438700E-04  6.65287982E+00  1.81378780E-14  6.57267065E-02 -2.53766335E-16  4.43345052E+01  1.07289605E-07  4.28176405E-06  7.25165627E+01  6.75443120E-14  4.31999995E-03  1.05957111E-20
  1.40000000E-02  6.00020353E+00 -3.59596883E-15 -1.00962697E-04  6.65297054E+00  2.13242698E-14  6.57267065E-02 -3.65007068E-16  4.43348268E+01  1.07252809E-07  4.49362767E-06  7.25190215E+01  7.81743634E-14  4.31999995E-03  1.37072439E-20
  1.50000000E-02  6.00021731E+00 -5.95764576E-16 -9.21709936E-05  6.65306099E+00  2.48025783E-14  6.57267065E-02 -5.05040620E-16  4.43351461E+01  1.07214817E-07  4.69206181E-06  7.25214678E+01  8.95595254E-14  4.31999995E-03  1.73705910E-20
  1.60000000E-02  6.00023102E+00  2.33421951E-15 -8.21930329E-05  6.65315117E+00  2.85821856E-14  6.57267065E-02 -6.76954511E-16  4.43354631E+01  1.07175634E-07  4.88040010E-06  7.25239021E+01  1.01696054E-13  4.31999995E-03  2.16198254E-20
  1.70000000E-02  6.00024465E+00  5.09440851E-15 -7.11474307E-05  6.65324111E+00  3.26735706E-14  6.57267065E-02 -8.82051315E-16  4.43357781E+01  1.07135265E-07  5.06167895E-06  7.25263250E+01  1.14580289E-13  4.31999995E-03  2.64854024E-20
  1.80000000E-02  6.00025822E+00  7.59815207E-15 -5.91420799E-05  6.65333082E+00  3.70880615E-14  6.57267065E-02 -1.12144581E-15  4.43360912E+01  1.07093716E-07  5.23856517E-06  7.25287371E+01  1.28208649E-13  4.31999995E-03  3.19952223E-20
  1.90000000E-02  6.00027173E+00  9.78169911E-15 -4.61854934E-05  6.65342033E+00  4.18390348E-14  6.57267065E-02 -1.39637111E-15  4.43364026E+01  1.07050994E-07  5.41066084E-06  7.25311389E+01  1.42577623E-13  4.31999995E-03  3.81733964E-20
  2.00000000E-02  6.00028518E+00  1.17289217E-14 -3.22268950E-05  6.65350965E+00  4.69418713E-14  6.57267065E-02 -1.70771342E-15  4.43367123E+01  1.07007105E-07  5.57598146E-06  7.25335311E+01  1.57683764E-13  4.31999995E-03  4.50406263E-20
  2.10000000E-02  6.00029859E+00  1.35587432E-14 -1.73532246E-05  6.65359880E+00  5.23983275E-14  6.57267065E-02 -2.05533219E-15  4.43370206E+01  1.06962056E-07  5.73691441E-06  7.25359142E+01  1.73523687E-13  4.31999995E-03  5.26141709E-20
  2.20000000E-02  6.00031197E+00  1.53703909E-14 -1.65206965E-06  6.65368780E+00  5.82119403E-14  6.57267065E-02 -2.43750009E-15  4.43373275E+01  1.06915854E-07  5.89562547E-06  7.25382888E+01  1.90094058E-13  4.31999995E-03  6.09080286E-20
  2.30000000E-02  6.00032531E+00  1.72507769E-14  1.47947829E-05  6.65377667E+00  6.43918584E-14  6.57267065E-02 -2.85218193E-15  4.43376333E+01  1.06868508E-07  6.05421184E-06  7.25406556E+01  2.07391601E-13  4.31999995E-03  6.99324979E-20
  2.40000000E-02  6.00033863E+00  1.92722538E-14  3.19112055E-05  6.65386542E+00  7.09533897E-14  6.57267065E-02 -3.29690531E-15  4.43379380E+01  1.06820024E-07  6.21432729E-06  7.25430150E+01  2.25413085E-13  4.31999995E-03  7.96945837E-20
  2.50000000E-02  6.00035193E+00  2.15053714E-14  4.96266080E-05  6.65395408E+00  7.79026823E-14  6.57267065E-02 -3.76890194E-15  4.43382419E+01  1.06770410E-07  6.37732433E-06  7.25453676E+01  2.44155322E-13  4.31999995E-03  9.01960472E-20
  2.60000000E-02  6.00036522E+00  2.39960278E-14  6.78757540E-05  6.65404265E+00  8.52449243E-14  6.57267065E-02 -4.26460075E-15  4.43385450E+01  1.06719676E-07  6.54427608E-06  7.25477140E+01  2.63615168E-13  4.31999995E-03  1.01433840E-19
  2.70000000E-02  6.00037850E+00  2.67731620E-14  8.65985702E-05  6.65413115E+00  9.29933443E-14  6.57267065E-02 -4.78024643E-15  4.43388474E+01  1.06667829E-07  6.71600255E-06  7.25500547E+01  2.83789518E-13  4.31999995E-03  1.13402242E-19
  2.80000000E-02  6.00039178E+00  2.98586432E-14  1.05739948E-04  6.65421960E+00  1.01153653E-13  6.57267065E-02 -5.31125828E-15  4.43391494E+01  1.06614879E-07  6.89309916E-06  7.25523902E+01  3.04675304E-13  4.31999995E-03  1.26092666E-19
  2.90000000E-02  6.00040506E+00  3.32588413E-14  1.25249543E-04  6.65430801E+00  1.09748332E-13  6.57267065E-02 -5.85287341E-15  4.43394509E+01  1.06560835E-07  7.07596595E-06  7.25547209E+01  3.26269496E-13  4.31999995E-03  1.39495622E-19
  3.00000000E-02  6.00041835E+00  3.70384514E-14  1.45081564E-04  6.65439638E+00  1.18774123E-13  6.57267065E-02 -6.39816573E-15  4.43397520E+01  1.06505705E-07  7.26483653E-06  7.25570471E+01  3.48569095E-13  4.31999995E-03  1.53598695E-19
  3.10000000E-02  6.00043165E+00  4.12229026E-14  1.65194561E-04  6.65448474E+00  1.28226536E-13  6.57267065E-02 -6.94279993E-15  4.43400530E+01  1.06449501E-07  7.45980525E-06  7.25593694E+01  3.71571132E-13  4.31999995E-03  1.68387636E-19
  3.20000000E-02  6.00044497E+00  4.58321396E-14  1.85551209E-04  6.65457310E+00  1.38111657E-13  6.57267065E-02 -7.48387351E-15  4.43403537E+01  1.06392231E-07  7.66085290E-06  7.25616879E+01  3.95272670E-13  4.31999995E-03  1.83847328E-19
  3.30000000E-02  6.00045830E+00  5.09027770E-14  2.06118102E-04  6.65466145E+00  1.48443476E-13  6.57267065E-02 -8.01720376E-15  4.43406544E+01  1.06333906E-07  7.86786989E-06  7.25640031E+01  4.19670796E-13  4.31999995E-03  1.99962278E-19
  3.40000000E-02  6.00047166E+00  5.64361067E-14  2.26865523E-04  6.65474980E+00  1.59244864E-13  6.57267065E-02 -8.53539550E-15  4.43409550E+01  1.06274536E-07  8.08067688E-06  7.25663152E+01  4.44762626E-13  4.31999995E-03  2.16717589E-19
  3.50000000E-02  6.00048504E+00  6.23992503E-14  2.47767223E-04  6.65483817E+00  1.70528728E-13  6.57267065E-02 -9.03556115E-15  4.43412557E+01  1.06214132E-07  8.29904275E-06  7.25686244E+01  4.70545302E-13  4.31999995E-03  2.34102720E-19
  3.60000000E-02  6.00049844E+00  6.88130063E-14  2.68800214E-04  6.65492656E+00  1.82279691E-13  6.57267065E-02 -9.52105380E-15  4.43415563E+01  1.06152705E-07  8.52270045E-06  7.25709309E+01  4.97015989E-13  4.31999995E-03  2.52122111E-19
  3.70000000E-02  6.00051187E+00  7.57740270E-14  2.89944554E-04  6.65501497E+00  1.94462602E-13  6.57267065E-02 -9.98648423E-15  4.43418571E+01  1.06090266E-07  8.75136490E-06  7.25732349E+01  5.24171876E-13  4.31999995E-03  2.70799008E-19
  3.80000000E-02  6.00052532E+00  8.32804736E-14  3.11183122E-04  6.65510340E+00  2.07109932E-13  6.57267065E-02 -1.04238096E-14  4.43421580E+01  1.06026827E-07  8.98474055E-06  7.25755364E+01  5.52010175E-13  4.31999995E-03  2.90176019E-19
  3.90000000E-02  6.00053880E+00  9.12091492E-14  3.32501418E-04  6.65519186E+00  2.20285771E-13  6.57267065E-02 -1.08143157E-14  4.43424590E+01  1.05962398E-07  9.22252228E-06  7.25778356E+01  5.80528118E-13  4.31999995E-03  3.10296805E-19
  4.00000000E-02  6.00055231E+00  9.96128319E-14  3.53887343E-04  6.65528036E+00  2.33980475E-13  6.57267065E-02 -1.11245022E-14  4.43427601E+01  1.05896993E-07  9.46440705E-06  7.25801326E+01  6.09722956E-13  4.31999995E-03  3.31211830E-19
  4.10000000E-02  6.00056585E+00  1.08627191E-13  3.75331001E-04  6.65536888E+00  2.48164644E-13  6.57267065E-02 -1.13120921E-14  4.43430614E+01  1.05830622E-07  9.71009977E-06  7.25824274E+01  6.39591963E-13  4.31999995E-03  3.52947239E-19
  4.20000000E-02  6.00057942E+00  1.18339926E-13  3.96824494E-04  6.65545743E+00  2.62833992E-13  6.57267065E-02 -1.13298912E-14  4.43433629E+01  1.05763297E-07  9.95931687E-06  7.25847200E+01  6.70132429E-13  4.31999995E-03  3.75491282E-19
  4.30000000E-02  6.00059302E+00  1.28886706E-13  4.18361732E-04  6.65554601E+00  2.77997618E-13  6.57267065E-02 -1.11259888E-14  4.43436645E+01  1.05695032E-07  1.02117891E-05  7.25870105E+01  7.01341665E-13  4.31999995E-03  3.98776874E-19
  4.40000000E-02  6.00060664E+00  1.40387498E-13  4.39938244E-04  6.65563462E+00  2.93658807E-13  6.57267065E-02 -1.06491880E-14  4.43439662E+01  1.05625838E-07  1.04672629E-05  7.25892988E+01  7.33216998E-13  4.31999995E-03  4.22713933E-19
  4.50000000E-02  6.00062029E+00  1.52785639E-13  4.61550999E-04  6.65572326E+00  3.09896085E-13  6.57267065E-02 -9.84248734E-15  4.43442681E+01  1.05555729E-07  1.07255016E-05  7.25915848E+01  7.65755773E-13  4.31999995E-03  4.47233490E-19
  4.60000000E-02  6.00063397E+00  1.66010132E-13  4.83198231E-04  6.65581193E+00  3.26795109E-13  6.57267065E-02 -8.66773103E-15  4.43445701E+01  1.05484718E-07  1.09862854E-05  7.25938686E+01  7.98955350E-13  4.31999995E-03  4.72328537E-19
  4.70000000E-02  6.00064767E+00  1.80040801E-13  5.04879282E-04  6.65590061E+00  3.44206934E-13  6.57267065E-02 -7.10428897E-15  4.43448721E+01  1.05412817E-07  1.12494117E-05  7.25961500E+01  8.32813110E-13  4.31999995E-03  4.97988733E-19
  4.80000000E-02  6.00066140E+00  1.94870342E-13  5.26594439E-04  6.65598932E+00  3.62129492E-13  6.57267065E-02 -5.12375334E-15  4.43451743E+01  1.05340041E-07  1.15146939E-05  7.25984290E+01  8.67326444E-13  4.31999995E-03  5.24205400E-19
  4.90000000E-02  6.00067515E+00  2.10515841E-13  5.48344793E-04  6.65607805E+00  3.80527810E-13  6.57267065E-02 -2.70877174E-15  4.43454764E+01  1.05266402E-07  1.17819615E-05  7.26007054E+01  9.02492761E-13  4.31999995E-03  5.50975843E-19
  5.00000000E-02  6.00068892E+00  2.27032341E-13  5.70132098E-04  6.65616679E+00  3.99362648E-13  6.57267065E-02  1.43691005E-16  4.43457786E+01  1.05191915E-07  1.20510586E-05  7.26029793E+01  9.38309491E-13  4.31999995E-03  5.78291590E-19
