 # time mean(w) mean(w**2)
  3.771226E-04  4.773587E+01 -1.551129E-20  3.646826E-04  1.410545E-20  1.657259E+01 -1.607156E+00  0.000000E+00 -2.783676E+00  1.731726E+05  2.466143E-11  2.055244E-04  2.410225E-11  5.292615E+02  3.816100E+00  1.526440E+01  1.144830E+01
  7.542334E-04  4.773583E+01 -2.935204E-20  8.052819E-04  1.757593E-20  1.657257E+01 -1.607156E+00 -3.947460E-16 -2.783676E+00  1.731723E+05  9.046804E-11  9.858539E-04  9.412538E-11  5.292680E+02  3.816101E+00  1.526440E+01  1.144830E+01
  1.131335E-03  4.773578E+01 -1.407428E-19  1.248393E-03  2.672860E-20  1.657256E+01 -1.607157E+00  0.000000E+00 -2.783676E+00  1.731719E+05  1.864675E-10  2.337432E-03  2.072885E-10  5.292746E+02  3.816101E+00  1.526439E+01  1.144830E+01
  1.508430E-03  4.773573E+01 -3.733533E-19  1.694011E-03  1.992880E-20  1.657255E+01 -1.607157E+00  1.973730E-16 -2.783676E+00  1.731715E+05  3.057909E-10  4.248853E-03  3.630916E-10  5.292812E+02  3.816102E+00  1.526439E+01  1.144830E+01
  1.885521E-03  4.773568E+01 -5.662415E-19  2.142126E-03  4.729267E-21  1.657253E+01 -1.607157E+00  1.973730E-16 -2.783677E+00  1.731710E+05  4.527490E-10  6.708927E-03  5.667000E-10  5.292877E+02  3.816102E+00  1.526439E+01  1.144830E+01
  2.262607E-03  4.773561E+01 -7.779292E-19  2.596046E-03  9.129133E-21  1.657252E+01 -1.607157E+00 -1.973730E-16 -2.783677E+00  1.731703E+05  6.168100E-10  9.692222E-03  8.347223E-10  5.292941E+02  3.816103E+00  1.526439E+01  1.144830E+01
  2.639689E-03  4.773553E+01 -9.623706E-19  3.053705E-03  4.705739E-21  1.657251E+01 -1.607157E+00 -1.973730E-16 -2.783677E+00  1.731693E+05  8.278677E-10  1.319113E-02  1.203504E-09  5.293004E+02  3.816103E+00  1.526439E+01  1.144830E+01
  3.016770E-03  4.773545E+01 -1.141036E-18  3.514476E-03 -6.964493E-21  1.657249E+01 -1.607158E+00  1.973730E-16 -2.783677E+00  1.731683E+05  1.085937E-09  1.718552E-02  1.738323E-09  5.293067E+02  3.816103E+00  1.526439E+01  1.144830E+01
  3.393848E-03  4.773536E+01 -5.450142E-12  3.978311E-03  2.609944E-17  1.657248E+01 -1.607158E+00  0.000000E+00 -2.783677E+00  1.731671E+05  1.436745E-09  2.160925E-02  2.531583E-09  5.293131E+02  3.816104E+00  1.526439E+01  1.144830E+01
  3.770924E-03  4.773527E+01 -2.544593E-11  4.445140E-03 -8.661377E-16  1.657248E+01 -1.607158E+00  0.000000E+00 -2.783677E+00  1.731658E+05  1.933007E-09  2.649131E-02  3.736251E-09  5.293198E+02  3.816104E+00  1.526439E+01  1.144830E+01
  4.147998E-03  4.773518E+01 -5.813010E-11  4.914933E-03 -4.145260E-15  1.657247E+01 -1.607158E+00  0.000000E+00 -2.783677E+00  1.731644E+05  2.636686E-09  3.181850E-02  5.574270E-09  5.293265E+02  3.816104E+00  1.526439E+01  1.144830E+01
  4.525072E-03  4.773508E+01 -1.002443E-10  5.387656E-03 -1.238964E-14  1.657247E+01 -1.607158E+00  0.000000E+00 -2.783677E+00  1.731629E+05  3.666117E-09  3.757788E-02  8.339454E-09  5.293333E+02  3.816105E+00  1.526438E+01  1.144830E+01
  4.902144E-03  4.773497E+01 -1.492436E-10  5.863276E-03 -2.908034E-14  1.657246E+01 -1.607158E+00  1.973730E-16 -2.783677E+00  1.731613E+05  5.106671E-09  4.375690E-02  1.240375E-08  5.293402E+02  3.816105E+00  1.526438E+01  1.144830E+01
  5.279215E-03  4.773486E+01 -2.029444E-10  6.341763E-03 -5.791513E-14  1.657246E+01 -1.607159E+00 -1.973730E-16 -2.783677E+00  1.731596E+05  7.152290E-09  5.034328E-02  1.822443E-08  5.293471E+02  3.816105E+00  1.526438E+01  1.144830E+01
  5.656286E-03  4.773475E+01 -2.591605E-10  6.823083E-03 -1.026058E-13  1.657246E+01 -1.607159E+00  1.973730E-16 -2.783677E+00  1.731578E+05  9.948580E-09  5.732508E-02  2.634121E-08  5.293540E+02  3.816105E+00  1.526438E+01  1.144830E+01
  6.033356E-03  4.773463E+01 -3.161742E-10  7.307206E-03 -1.664284E-13  1.657246E+01 -1.607159E+00  3.947460E-16 -2.783677E+00  1.731559E+05  1.370464E-08  6.469064E-02  3.738059E-08  5.293609E+02  3.816106E+00  1.526438E+01  1.144830E+01
  6.410425E-03  4.773451E+01 -3.727363E-10  7.794100E-03 -2.521325E-13  1.657246E+01 -1.607159E+00  3.947460E-16 -2.783677E+00  1.731539E+05  1.866612E-08  7.242862E-02  5.204079E-08  5.293678E+02  3.816106E+00  1.526438E+01  1.144830E+01
  6.787494E-03  4.773439E+01 -4.279645E-10  8.283735E-03 -3.617730E-13  1.657247E+01 -1.607159E+00  9.868649E-16 -2.783677E+00  1.731518E+05  2.505985E-08  8.052798E-02  7.110449E-08  5.293747E+02  3.816106E+00  1.526438E+01  1.144829E+01
  7.164563E-03  4.773426E+01 -4.806237E-10  8.776078E-03 -4.965386E-13  1.657247E+01 -1.607159E+00  7.894919E-16 -2.783677E+00  1.731496E+05  3.321166E-08  8.897794E-02  9.526242E-08  5.293815E+02  3.816106E+00  1.526438E+01  1.144829E+01
  7.541631E-03  4.773412E+01 -5.311890E-10  9.271101E-03 -6.566049E-13  1.657247E+01 -1.607159E+00  9.868649E-16 -2.783677E+00  1.731473E+05  4.340165E-08  9.776801E-02  1.253509E-07  5.293884E+02  3.816106E+00  1.526438E+01  1.144829E+01
  7.918699E-03  4.773399E+01 -5.802903E-10  9.768772E-03 -8.410000E-13  1.657247E+01 -1.607159E+00  1.184238E-15 -2.783677E+00  1.731449E+05  5.598817E-08  1.068880E-01  1.623646E-07  5.293952E+02  3.816106E+00  1.526438E+01  1.144829E+01
  8.295766E-03  4.773385E+01 -6.284835E-10  1.026906E-02 -1.047272E-12  1.657248E+01 -1.607159E+00  2.368476E-15 -2.783677E+00  1.731424E+05  7.130905E-08  1.163278E-01  2.073420E-07  5.294019E+02  3.816106E+00  1.526437E+01  1.144829E+01
  8.672834E-03  4.773370E+01 -6.761363E-10  1.077194E-02 -1.271722E-12  1.657248E+01 -1.607160E+00  2.171103E-15 -2.783677E+00  1.731399E+05  8.972309E-08  1.260779E-01  2.612082E-07  5.294087E+02  3.816106E+00  1.526437E+01  1.144829E+01
  9.049900E-03  4.773355E+01 -7.458401E-10  1.127738E-02 -1.509890E-12  1.657248E+01 -1.607160E+00  5.173430E-10 -2.783677E+00  1.731372E+05  1.115557E-07  1.361287E-01  3.232185E-07  5.294154E+02  3.816107E+00  1.526437E+01  1.144829E+01
  9.426967E-03  4.773340E+01 -8.992958E-10  1.178534E-02 -1.756662E-12  1.657249E+01 -1.607160E+00  4.077965E-09 -2.783677E+00  1.731344E+05  1.370624E-07  1.464712E-01  3.946529E-07  5.294220E+02  3.816107E+00  1.526437E+01  1.144829E+01
  9.804034E-03  4.773325E+01 -3.371813E-10  1.229581E-02 -2.006262E-12  1.657249E+01 -1.607160E+00  9.425054E-09 -2.783676E+00  1.731316E+05  1.666595E-07  1.570961E-01  4.767500E-07  5.294286E+02  3.816107E+00  1.526437E+01  1.144829E+01
  1.018110E-02  4.773309E+01 -4.562259E-10  1.280875E-02 -2.252815E-12  1.657249E+01 -1.607160E+00  1.473510E-08 -2.783676E+00  1.731286E+05  2.007305E-07  1.679950E-01  5.705559E-07  5.294352E+02  3.816107E+00  1.526437E+01  1.144829E+01
  1.055817E-02  4.773292E+01 -1.194103E-09  1.332413E-02 -2.489470E-12  1.657250E+01 -1.607160E+00  1.899947E-08 -2.783676E+00  1.731256E+05  2.396591E-07  1.791592E-01  6.771138E-07  5.294417E+02  3.816107E+00  1.526437E+01  1.144829E+01
  1.093523E-02  4.773276E+01 -1.224842E-09  1.384193E-02 -2.709409E-12  1.657250E+01 -1.607160E+00  2.355361E-08 -2.783676E+00  1.731225E+05  2.828798E-07  1.905804E-01  7.973828E-07  5.294481E+02  3.816107E+00  1.526437E+01  1.144828E+01
  1.131230E-02  4.773259E+01 -1.910454E-09  1.436211E-02 -2.905563E-12  1.657251E+01 -1.607160E+00  2.814730E-08 -2.783676E+00  1.731193E+05  3.297251E-07  2.022507E-01  9.322398E-07  5.294545E+02  3.816107E+00  1.526437E+01  1.144828E+01
  1.168936E-02  4.773241E+01 -2.081500E-09  1.488466E-02 -3.071498E-12  1.657251E+01 -1.607160E+00  3.462490E-08 -2.783676E+00  1.731160E+05  3.812844E-07  2.141611E-01  1.083298E-06  5.294608E+02  3.816107E+00  1.526436E+01  1.144828E+01
  1.206643E-02  4.773224E+01 -1.750503E-09  1.540953E-02 -3.202584E-12  1.657252E+01 -1.607160E+00  3.963838E-08 -2.783676E+00  1.731126E+05  4.385739E-07  2.263019E-01  1.253219E-06  5.294671E+02  3.816107E+00  1.526436E+01  1.144828E+01
  1.244349E-02  4.773206E+01 -3.506320E-09  1.593671E-02 -3.294669E-12  1.657252E+01 -1.607160E+00  4.607462E-08 -2.783676E+00  1.731091E+05  5.024812E-07  2.386650E-01  1.444603E-06  5.294734E+02  3.816107E+00  1.526436E+01  1.144828E+01
  1.282056E-02  4.773187E+01 -5.003563E-09  1.646616E-02 -3.344563E-12  1.657253E+01 -1.607160E+00  5.200035E-08 -2.783676E+00  1.731056E+05  5.738274E-07  2.512429E-01  1.660157E-06  5.294795E+02  3.816107E+00  1.526436E+01  1.144828E+01
  1.319762E-02  4.773169E+01 -5.361844E-09  1.699786E-02 -3.350392E-12  1.657253E+01 -1.607160E+00  5.644733E-08 -2.783676E+00  1.731019E+05  6.535237E-07  2.640284E-01  1.902454E-06  5.294857E+02  3.816107E+00  1.526436E+01  1.144828E+01
  1.357469E-02  4.773150E+01 -5.835664E-09  1.753178E-02 -3.314452E-12  1.657254E+01 -1.607160E+00  6.175138E-08 -2.783675E+00  1.730982E+05  7.424673E-07  2.770143E-01  2.174181E-06  5.294917E+02  3.816107E+00  1.526436E+01  1.144827E+01
  1.395175E-02  4.773131E+01 -9.344202E-09  1.806789E-02 -3.235806E-12  1.657255E+01 -1.607161E+00  7.003322E-08 -2.783675E+00  1.730944E+05  8.415488E-07  2.901937E-01  2.478158E-06  5.294977E+02  3.816106E+00  1.526436E+01  1.144827E+01
  1.432882E-02  4.773111E+01 -1.169924E-08  1.860616E-02 -3.116697E-12  1.657255E+01 -1.607161E+00  7.778882E-08 -2.783675E+00  1.730905E+05  9.518365E-07  3.035597E-01  2.817365E-06  5.295037E+02  3.816106E+00  1.526436E+01  1.144827E+01
  1.470588E-02  4.773091E+01 -1.099766E-08  1.914656E-02 -2.960616E-12  1.657256E+01 -1.607161E+00  8.308110E-08 -2.783675E+00  1.730865E+05  1.074377E-06  3.171058E-01  3.194963E-06  5.295095E+02  3.816106E+00  1.526435E+01  1.144827E+01
  1.508295E-02  4.773071E+01 -1.433585E-08  1.968908E-02 -2.771552E-12  1.657256E+01 -1.607161E+00  8.890144E-08 -2.783675E+00  1.730825E+05  1.210267E-06  3.308254E-01  3.614278E-06  5.295153E+02  3.816106E+00  1.526435E+01  1.144827E+01
  1.546001E-02  4.773050E+01 -1.466443E-08  2.023368E-02 -2.555200E-12  1.657257E+01 -1.607161E+00  9.427716E-08 -2.783675E+00  1.730783E+05  1.360685E-06  3.447124E-01  4.078769E-06  5.295211E+02  3.816106E+00  1.526435E+01  1.144827E+01
  1.583708E-02  4.773030E+01 -2.050059E-08  2.078034E-02 -2.318199E-12  1.657257E+01 -1.607161E+00  1.020262E-07 -2.783675E+00  1.730741E+05  1.526862E-06  3.587607E-01  4.592161E-06  5.295268E+02  3.816106E+00  1.526435E+01  1.144827E+01
  1.621414E-02  4.773009E+01 -2.393596E-08  2.132903E-02 -2.063398E-12  1.657258E+01 -1.607161E+00  1.051592E-07 -2.783675E+00  1.730698E+05  1.710174E-06  3.729642E-01  5.157724E-06  5.295324E+02  3.816106E+00  1.526435E+01  1.144826E+01
  1.659120E-02  4.772987E+01 -2.188532E-08  2.187972E-02 -1.795830E-12  1.657258E+01 -1.607161E+00  1.118230E-07 -2.783674E+00  1.730654E+05  1.912011E-06  3.873173E-01  5.772676E-06  5.295379E+02  3.816106E+00  1.526435E+01  1.144826E+01
  1.696827E-02  4.772965E+01 -2.456977E-08  2.243239E-02 -1.522423E-12  1.657259E+01 -1.607161E+00  1.177708E-07 -2.783674E+00  1.730609E+05  2.133019E-06  4.018147E-01  6.440063E-06  5.295434E+02  3.816106E+00  1.526435E+01  1.144826E+01
  1.734533E-02  4.772944E+01 -2.695652E-08  2.298702E-02 -1.246994E-12  1.657260E+01 -1.607161E+00  1.218878E-07 -2.783674E+00  1.730564E+05  2.371268E-06  4.164542E-01  7.156583E-06  5.295489E+02  3.816106E+00  1.526434E+01  1.144826E+01
  1.772240E-02  4.772921E+01 -3.140086E-08  2.354357E-02 -9.741117E-13  1.657260E+01 -1.607161E+00  1.264736E-07 -2.783674E+00  1.730518E+05  2.626422E-06  4.312330E-01  7.922609E-06  5.295543E+02  3.816105E+00  1.526434E+01  1.144826E+01
  1.809946E-02  4.772899E+01 -3.344393E-08  2.410203E-02 -7.087401E-13  1.657261E+01 -1.607161E+00  1.326565E-07 -2.783674E+00  1.730471E+05  2.899031E-06  4.461461E-01  8.740714E-06  5.295596E+02  3.816105E+00  1.526434E+01  1.144826E+01
  1.847653E-02  4.772876E+01 -3.758510E-08  2.466237E-02 -4.547771E-13  1.657261E+01 -1.607161E+00  1.376400E-07 -2.783674E+00  1.730423E+05  3.189627E-06  4.611890E-01  9.613144E-06  5.295649E+02  3.816105E+00  1.526434E+01  1.144826E+01
  1.885359E-02  4.772853E+01 -4.237547E-08  2.522457E-02 -2.189267E-13  1.657262E+01 -1.607161E+00  1.439717E-07 -2.783674E+00  1.730375E+05  3.498829E-06  4.763569E-01  1.054232E-05  5.295702E+02  3.816105E+00  1.526434E+01  1.144825E+01
  1.923065E-02  4.772830E+01 -4.217323E-08  2.578861E-02 -3.023571E-15  1.657263E+01 -1.607161E+00  1.479313E-07 -2.783673E+00  1.730325E+05  3.827270E-06  4.916456E-01  1.153051E-05  5.295754E+02  3.816105E+00  1.526434E+01  1.144825E+01
  1.960772E-02  4.772806E+01 -4.534434E-08  2.635446E-02  1.879670E-13  1.657263E+01 -1.607161E+00  1.556456E-07 -2.783673E+00  1.730275E+05  4.175599E-06  5.070506E-01  1.258018E-05  5.295806E+02  3.816105E+00  1.526434E+01  1.144825E+01
  1.998478E-02  4.772782E+01 -5.194916E-08  2.692210E-02  3.483932E-13  1.657264E+01 -1.607161E+00  1.595207E-07 -2.783673E+00  1.730224E+05  4.544550E-06  5.225678E-01  1.369390E-05  5.295857E+02  3.816104E+00  1.526433E+01  1.144825E+01
  2.036184E-02  4.772758E+01 -5.490941E-08  2.749150E-02  4.760624E-13  1.657265E+01 -1.607161E+00  1.634043E-07 -2.783673E+00  1.730173E+05  4.934840E-06  5.381930E-01  1.487447E-05  5.295907E+02  3.816104E+00  1.526433E+01  1.144825E+01
  2.073891E-02  4.772734E+01 -5.648808E-08  2.806266E-02  5.677805E-13  1.657265E+01 -1.607161E+00  1.704101E-07 -2.783673E+00  1.730121E+05  5.347224E-06  5.539224E-01  1.612421E-05  5.295957E+02  3.816104E+00  1.526433E+01  1.144825E+01
  2.111597E-02  4.772709E+01 -6.522511E-08  2.863553E-02  6.185715E-13  1.657266E+01 -1.607161E+00  1.752517E-07 -2.783673E+00  1.730068E+05  5.782579E-06  5.697521E-01  1.744594E-05  5.296006E+02  3.816104E+00  1.526433E+01  1.144824E+01
  2.149304E-02  4.772685E+01 -6.643941E-08  2.921011E-02  6.271148E-13  1.657267E+01 -1.607161E+00  1.799429E-07 -2.783672E+00  1.730014E+05  6.241739E-06  5.856784E-01  1.884184E-05  5.296055E+02  3.816104E+00  1.526433E+01  1.144824E+01
  2.187010E-02  4.772659E+01 -6.662977E-08  2.978636E-02  5.914652E-13  1.657267E+01 -1.607161E+00  1.852986E-07 -2.783672E+00  1.729959E+05  6.725560E-06  6.016976E-01  2.031457E-05  5.296103E+02  3.816103E+00  1.526433E+01  1.144824E+01
  2.224716E-02  4.772634E+01 -7.358203E-08  3.036428E-02  5.077838E-13  1.657268E+01 -1.607161E+00  1.892018E-07 -2.783672E+00  1.729904E+05  7.235004E-06  6.178062E-01  2.186669E-05  5.296150E+02  3.816103E+00  1.526432E+01  1.144824E+01
  2.262423E-02  4.772609E+01 -7.619239E-08  3.094383E-02  3.750347E-13  1.657269E+01 -1.607161E+00  1.948040E-07 -2.783672E+00  1.729848E+05  7.770922E-06  6.340007E-01  2.350048E-05  5.296197E+02  3.816103E+00  1.526432E+01  1.144824E+01
  2.300129E-02  4.772583E+01 -7.959328E-08  3.152500E-02  1.921984E-13  1.657269E+01 -1.607161E+00  1.980140E-07 -2.783672E+00  1.729792E+05  8.334237E-06  6.502779E-01  2.521855E-05  5.296243E+02  3.816103E+00  1.526432E+01  1.144823E+01
  2.337835E-02  4.772557E+01 -8.515876E-08  3.210776E-02 -4.084874E-14  1.657270E+01 -1.607162E+00  2.030856E-07 -2.783672E+00  1.729734E+05  8.925910E-06  6.666347E-01  2.702364E-05  5.296288E+02  3.816102E+00  1.526432E+01  1.144823E+01
  2.375542E-02  4.772531E+01 -8.899402E-08  3.269210E-02 -3.262435E-13  1.657271E+01 -1.607162E+00  2.082674E-07 -2.783671E+00  1.729676E+05  9.546854E-06  6.830679E-01  2.891888E-05  5.296333E+02  3.816102E+00  1.526432E+01  1.144823E+01
  2.413248E-02  4.772504E+01 -9.267383E-08  3.327799E-02 -6.624000E-13  1.657271E+01 -1.607162E+00  2.132424E-07 -2.783671E+00  1.729618E+05  1.019815E-05  6.995745E-01  3.090679E-05  5.296377E+02  3.816102E+00  1.526432E+01  1.144823E+01
  2.450955E-02  4.772478E+01 -9.659866E-08  3.386541E-02 -1.050095E-12  1.657272E+01 -1.607162E+00  2.165484E-07 -2.783671E+00  1.729558E+05  1.088094E-05  7.161516E-01  3.299078E-05  5.296420E+02  3.816102E+00  1.526431E+01  1.144823E+01
  2.488661E-02  4.772451E+01 -1.006822E-07  3.445435E-02 -1.489857E-12  1.657272E+01 -1.607162E+00  2.216948E-07 -2.783671E+00  1.729498E+05  1.159648E-05  7.327963E-01  3.517356E-05  5.296463E+02  3.816101E+00  1.526431E+01  1.144823E+01
  2.526367E-02  4.772424E+01 -1.043709E-07  3.504479E-02 -1.981264E-12  1.657273E+01 -1.607162E+00  2.265016E-07 -2.783671E+00  1.729437E+05  1.234586E-05  7.495058E-01  3.745815E-05  5.296505E+02  3.816101E+00  1.526431E+01  1.144822E+01
  2.564074E-02  4.772397E+01 -1.075879E-07  3.563670E-02 -2.523287E-12  1.657273E+01 -1.607162E+00  2.308435E-07 -2.783671E+00  1.729376E+05  1.313015E-05  7.662773E-01  3.984738E-05  5.296546E+02  3.816101E+00  1.526431E+01  1.144822E+01
  2.601780E-02  4.772369E+01 -1.110321E-07  3.623006E-02 -3.117060E-12  1.657274E+01 -1.607162E+00  2.341648E-07 -2.783670E+00  1.729314E+05  1.395035E-05  7.831081E-01  4.234479E-05  5.296587E+02  3.816101E+00  1.526431E+01  1.144822E+01
  2.639487E-02  4.772342E+01 -1.166117E-07  3.682485E-02 -3.759807E-12  1.657274E+01 -1.607162E+00  2.400010E-07 -2.783670E+00  1.729251E+05  1.480759E-05  7.999957E-01  4.495364E-05  5.296626E+02  3.816100E+00  1.526431E+01  1.144822E+01
  2.677193E-02  4.772314E+01 -1.160868E-07  3.742107E-02 -4.449662E-12  1.657275E+01 -1.607162E+00  2.441284E-07 -2.783670E+00  1.729188E+05  1.570463E-05  8.169374E-01  4.768256E-05  5.296666E+02  3.816100E+00  1.526430E+01  1.144822E+01
  2.714899E-02  4.772286E+01 -1.264066E-07  3.801868E-02 -5.188361E-12  1.657275E+01 -1.607162E+00  2.492989E-07 -2.783670E+00  1.729124E+05  1.664410E-05  8.339307E-01  5.053989E-05  5.296704E+02  3.816100E+00  1.526430E+01  1.144821E+01
  2.752606E-02  4.772257E+01 -1.241730E-07  3.861766E-02 -5.970513E-12  1.657276E+01 -1.607162E+00  2.518262E-07 -2.783670E+00  1.729059E+05  1.762754E-05  8.509733E-01  5.353029E-05  5.296742E+02  3.816100E+00  1.526430E+01  1.144821E+01
  2.790312E-02  4.772229E+01 -1.304071E-07  3.921801E-02 -6.797817E-12  1.657276E+01 -1.607162E+00  2.577587E-07 -2.783670E+00  1.728993E+05  1.865627E-05  8.680630E-01  5.665806E-05  5.296779E+02  3.816099E+00  1.526430E+01  1.144821E+01
  2.828018E-02  4.772200E+01 -1.324495E-07  3.981969E-02 -7.667901E-12  1.657277E+01 -1.607162E+00  2.599440E-07 -2.783669E+00  1.728927E+05  1.973181E-05  8.851975E-01  5.992793E-05  5.296816E+02  3.816099E+00  1.526430E+01  1.144821E+01
  2.865724E-02  4.772172E+01 -1.403197E-07  4.042270E-02 -8.579792E-12  1.657277E+01 -1.607162E+00  2.668576E-07 -2.783669E+00  1.728861E+05  2.085556E-05  9.023749E-01  6.334445E-05  5.296852E+02  3.816099E+00  1.526429E+01  1.144821E+01
  2.903430E-02  4.772143E+01 -1.420137E-07  4.102701E-02 -9.530588E-12  1.657278E+01 -1.607162E+00  2.693263E-07 -2.783669E+00  1.728793E+05  2.202906E-05  9.195931E-01  6.691257E-05  5.296887E+02  3.816098E+00  1.526429E+01  1.144820E+01
  2.941136E-02  4.772113E+01 -1.467558E-07  4.163260E-02 -1.052120E-11  1.657278E+01 -1.607162E+00  2.715022E-07 -2.783669E+00  1.728726E+05  2.325377E-05  9.368500E-01  7.063692E-05  5.296922E+02  3.816098E+00  1.526429E+01  1.144820E+01
  2.978842E-02  4.772084E+01 -1.514370E-07  4.223946E-02 -1.154687E-11  1.657279E+01 -1.607162E+00  2.786473E-07 -2.783669E+00  1.728657E+05  2.453120E-05  9.541439E-01  7.452182E-05  5.296956E+02  3.816098E+00  1.526429E+01  1.144820E+01
  3.016548E-02  4.772055E+01 -1.540020E-07  4.284758E-02 -1.260772E-11  1.657279E+01 -1.607162E+00  2.820604E-07 -2.783668E+00  1.728588E+05  2.586294E-05  9.714729E-01  7.857192E-05  5.296989E+02  3.816097E+00  1.526429E+01  1.144820E+01
  3.054254E-02  4.772025E+01 -1.560341E-07  4.345693E-02 -1.370149E-11  1.657279E+01 -1.607162E+00  2.848203E-07 -2.783668E+00  1.728518E+05  2.725054E-05  9.888353E-01  8.279166E-05  5.297022E+02  3.816097E+00  1.526428E+01  1.144820E+01
  3.091960E-02  4.771995E+01 -1.599996E-07  4.406749E-02 -1.482638E-11  1.657280E+01 -1.607162E+00  2.896934E-07 -2.783668E+00  1.728448E+05  2.869555E-05  1.006229E+00  8.718570E-05  5.297054E+02  3.816097E+00  1.526428E+01  1.144819E+01
  3.129666E-02  4.771965E+01 -1.612259E-07  4.467926E-02 -1.597758E-11  1.657280E+01 -1.607162E+00  2.943103E-07 -2.783668E+00  1.728377E+05  3.019955E-05  1.023653E+00  9.175870E-05  5.297085E+02  3.816096E+00  1.526428E+01  1.144819E+01
