 # time mean(w) mean(w**2)
  5.00000000E-04  9.99999997E-01  2.49696064E-06  1.49999992E+00  4.97017001E-01  4.30279374E+00  1.00000249E+00  2.50018752E-06  2.25000538E+00  2.47025899E-01  1.85140802E+01
  1.00000000E-03  9.99999993E-01  2.49333005E-06  1.49999991E+00  4.97017000E-01  4.30279375E+00  1.00000249E+00  2.50018759E-06  2.25000537E+00  2.47025898E-01  1.85140804E+01
  1.50000000E-03  9.99999989E-01  2.48908809E-06  1.49999991E+00  4.97016999E-01  4.30279377E+00  1.00000248E+00  2.50018773E-06  2.25000535E+00  2.47025898E-01  1.85140805E+01
  2.00000000E-03  9.99999984E-01  2.48421944E-06  1.49999990E+00  4.97016998E-01  4.30279379E+00  1.00000247E+00  2.50018796E-06  2.25000532E+00  2.47025897E-01  1.85140807E+01
  2.50000000E-03  9.99999979E-01  2.47871421E-06  1.49999989E+00  4.97016998E-01  4.30279382E+00  1.00000246E+00  2.50018833E-06  2.25000529E+00  2.47025896E-01  1.85140809E+01
  3.00000000E-03  9.99999973E-01  2.47256602E-06  1.49999988E+00  4.97016997E-01  4.30279384E+00  1.00000245E+00  2.50018885E-06  2.25000527E+00  2.47025895E-01  1.85140811E+01
  3.50000000E-03  9.99999966E-01  2.46577073E-06  1.49999987E+00  4.97016995E-01  4.30279387E+00  1.00000243E+00  2.50018958E-06  2.25000523E+00  2.47025894E-01  1.85140814E+01
  4.00000000E-03  9.99999959E-01  2.45832577E-06  1.49999986E+00  4.97016994E-01  4.30279390E+00  1.00000242E+00  2.50019053E-06  2.25000520E+00  2.47025893E-01  1.85140817E+01
  4.50000000E-03  9.99999950E-01  2.45022971E-06  1.49999984E+00  4.97016993E-01  4.30279394E+00  1.00000240E+00  2.50019176E-06  2.25000516E+00  2.47025891E-01  1.85140820E+01
  5.00000000E-03  9.99999942E-01  2.44148192E-06  1.49999983E+00  4.97016991E-01  4.30279398E+00  1.00000238E+00  2.50019331E-06  2.25000511E+00  2.47025890E-01  1.85140823E+01
  5.50000000E-03  9.99999932E-01  2.43208222E-06  1.49999981E+00  4.97016990E-01  4.30279402E+00  1.00000236E+00  2.50019522E-06  2.25000507E+00  2.47025888E-01  1.85140826E+01
  6.00000000E-03  9.99999922E-01  2.42203045E-06  1.49999980E+00  4.97016988E-01  4.30279406E+00  1.00000234E+00  2.50019754E-06  2.25000502E+00  2.47025887E-01  1.85140830E+01
  6.50000000E-03  9.99999912E-01  2.41132595E-06  1.49999978E+00  4.97016987E-01  4.30279410E+00  1.00000232E+00  2.50020031E-06  2.25000497E+00  2.47025885E-01  1.85140834E+01
  7.00000000E-03  9.99999901E-01  2.39996694E-06  1.49999976E+00  4.97016985E-01  4.30279415E+00  1.00000230E+00  2.50020360E-06  2.25000491E+00  2.47025883E-01  1.85140838E+01
  7.50000000E-03  9.99999889E-01  2.38794993E-06  1.49999974E+00  4.97016983E-01  4.30279420E+00  1.00000228E+00  2.50020746E-06  2.25000486E+00  2.47025881E-01  1.85140843E+01
  8.00000000E-03  9.99999876E-01  2.37526944E-06  1.49999972E+00  4.97016981E-01  4.30279426E+00  1.00000225E+00  2.50021194E-06  2.25000479E+00  2.47025879E-01  1.85140847E+01
  8.50000000E-03  9.99999863E-01  2.36191787E-06  1.49999970E+00  4.97016978E-01  4.30279432E+00  1.00000223E+00  2.50021710E-06  2.25000473E+00  2.47025877E-01  1.85140852E+01
  9.00000000E-03  9.99999849E-01  2.34788592E-06  1.49999968E+00  4.97016976E-01  4.30279438E+00  1.00000220E+00  2.50022300E-06  2.25000466E+00  2.47025874E-01  1.85140857E+01
  9.50000000E-03  9.99999834E-01  2.33316315E-06  1.49999966E+00  4.97016974E-01  4.30279444E+00  1.00000217E+00  2.50022970E-06  2.25000459E+00  2.47025872E-01  1.85140863E+01
  1.00000000E-02  9.99999819E-01  2.31773883E-06  1.49999963E+00  4.97016971E-01  4.30279450E+00  1.00000214E+00  2.50023725E-06  2.25000452E+00  2.47025870E-01  1.85140868E+01
