 # time mean(w) mean(w**2)
  1.000000E-03  2.810547E-01 -3.441071E-22 -1.871633E-05  8.243626E-23  1.518534E+00  2.071294E-01  7.260805E-10  3.503495E-08  3.185099E-09  2.315399E+00
  2.000000E-03  2.810546E-01  3.176374E-22 -3.702515E-05 -6.736423E-23  1.518534E+00  2.055798E-01  2.449966E-09  1.302989E-07  1.088486E-08  2.315395E+00
  3.000000E-03  2.810544E-01  7.019786E-20 -5.455055E-05 -2.360513E-20  1.518533E+00  2.043729E-01  4.664072E-09  2.713867E-07  2.126141E-08  2.315389E+00
  4.000000E-03  2.810540E-01  5.433716E-19 -7.158081E-05 -1.598898E-20  1.518533E+00  2.034164E-01  7.177197E-09  4.470513E-07  3.336430E-08  2.315384E+00
  5.000000E-03  2.810535E-01  2.103818E-18 -8.813517E-05  8.770383E-18  1.518532E+00  2.026461E-01  9.833244E-09  6.497074E-07  4.664126E-08  2.315378E+00
  6.000000E-03  2.810529E-01  5.733143E-18 -1.042169E-04  2.447282E-17  1.518531E+00  2.020151E-01  1.253045E-08  8.747255E-07  6.038435E-08  2.315372E+00
  7.000000E-03  2.810522E-01  1.259517E-17 -1.198299E-04  4.743102E-17  1.518529E+00  2.014884E-01  1.521889E-08  1.118363E-06  7.429768E-08  2.315366E+00
  8.000000E-03  2.810515E-01  2.386706E-17 -1.349108E-04  7.764604E-17  1.518528E+00  2.010412E-01  1.778086E-08  1.377440E-06  8.811367E-08  2.315360E+00
  9.000000E-03  2.810506E-01  4.060739E-17 -1.492575E-04  1.149589E-16  1.518525E+00  2.006526E-01  2.010930E-08  1.649078E-06  1.015148E-07  2.315350E+00
  1.000000E-02  2.810497E-01  6.349359E-17 -1.630814E-04  1.725986E-16  1.518523E+00  2.003067E-01  2.226475E-08  1.930859E-06  1.143758E-07  2.315340E+00
  1.100000E-02  2.810487E-01  9.246508E-17 -1.769803E-04  2.620450E-16  1.518520E+00  1.999934E-01  2.422375E-08  2.221566E-06  1.263422E-07  2.315330E+00
  1.200000E-02  2.810476E-01  1.271989E-16 -1.900891E-04  3.776360E-16  1.518517E+00  1.997059E-01  2.602718E-08  2.518278E-06  1.377663E-07  2.315319E+00
  1.300000E-02  2.810465E-01  1.665322E-16 -2.031167E-04  5.131887E-16  1.518513E+00  1.994397E-01  2.766963E-08  2.820374E-06  1.487383E-07  2.315308E+00
  1.400000E-02  2.810454E-01  2.082617E-16 -2.157194E-04  6.622461E-16  1.518510E+00  1.991915E-01  2.915939E-08  3.125491E-06  1.593237E-07  2.315296E+00
  1.500000E-02  2.810441E-01  2.497714E-16 -2.279078E-04  8.183540E-16  1.518506E+00  1.989587E-01  3.052569E-08  3.432288E-06  1.692738E-07  2.315283E+00
  1.600000E-02  2.810429E-01  2.881017E-16 -2.396927E-04  9.754318E-16  1.518502E+00  1.987393E-01  3.177850E-08  3.738389E-06  1.788342E-07  2.315271E+00
  1.700000E-02  2.810416E-01  3.199663E-16 -2.510787E-04  1.127878E-15  1.518498E+00  1.985318E-01  3.293407E-08  4.043354E-06  1.878999E-07  2.315258E+00
  1.800000E-02  2.810402E-01  3.418218E-16 -2.624225E-04  1.270484E-15  1.518494E+00  1.983348E-01  3.402545E-08  4.347449E-06  1.965658E-07  2.315244E+00
  1.900000E-02  2.810388E-01  3.499017E-16 -2.730420E-04  1.398624E-15  1.518490E+00  1.981471E-01  3.505801E-08  4.648933E-06  2.048434E-07  2.315230E+00
  2.000000E-02  2.810374E-01  3.401540E-16 -2.838143E-04  1.507455E-15  1.518485E+00  1.979680E-01  3.605260E-08  4.949464E-06  2.128278E-07  2.315216E+00
  2.100000E-02  2.810360E-01  3.084369E-16 -2.942166E-04  1.594276E-15  1.518481E+00  1.977967E-01  3.701971E-08  5.247263E-06  2.205607E-07  2.315201E+00
  2.200000E-02  2.810345E-01  2.506265E-16 -3.037796E-04  1.656689E-15  1.518476E+00  1.976326E-01  3.798740E-08  5.540782E-06  2.281985E-07  2.315187E+00
  2.300000E-02  2.810330E-01  1.626820E-16 -3.132049E-04  1.692137E-15  1.518471E+00  1.974750E-01  3.900119E-08  5.831797E-06  2.358796E-07  2.315172E+00
  2.400000E-02  2.810315E-01  4.057542E-17 -3.221610E-04  1.698562E-15  1.518467E+00  1.973234E-01  4.006096E-08  6.120102E-06  2.437409E-07  2.315157E+00
  2.500000E-02  2.810299E-01 -1.196637E-16 -3.310063E-04  1.675467E-15  1.518462E+00  1.971774E-01  4.118340E-08  6.407461E-06  2.517187E-07  2.315142E+00
  2.600000E-02  2.810283E-01 -3.220767E-16 -3.395630E-04  1.629243E-15  1.518457E+00  1.970366E-01  4.238502E-08  6.694217E-06  2.600021E-07  2.315127E+00
  2.700000E-02  2.810267E-01 -5.707333E-16 -3.478325E-04  1.571994E-15  1.518452E+00  1.969008E-01  4.368041E-08  6.980356E-06  2.688130E-07  2.315112E+00
  2.800000E-02  2.810251E-01 -8.697199E-16 -3.558164E-04  1.532796E-15  1.518447E+00  1.967695E-01  4.508225E-08  7.265734E-06  2.782524E-07  2.315096E+00
  2.900000E-02  2.810235E-01 -1.223022E-15 -3.635164E-04  1.568742E-15  1.518442E+00  1.966424E-01  4.660134E-08  7.550467E-06  2.884223E-07  2.315081E+00
  3.000000E-02  2.810219E-01 -1.634658E-15 -3.709340E-04  1.736485E-15  1.518437E+00  1.965193E-01  4.824832E-08  7.834439E-06  2.994016E-07  2.315066E+00
  3.100000E-02  2.810202E-01 -2.108561E-15 -3.782476E-04  2.078948E-15  1.518432E+00  1.963999E-01  5.003199E-08  8.117678E-06  3.114473E-07  2.315050E+00
  3.200000E-02  2.810186E-01 -2.648653E-15 -3.849540E-04  2.620963E-15  1.518427E+00  1.962840E-01  5.196057E-08  8.398145E-06  3.247620E-07  2.315035E+00
  3.300000E-02  2.810169E-01 -3.258864E-15 -3.915687E-04  3.363327E-15  1.518422E+00  1.961716E-01  5.404087E-08  8.677332E-06  3.393804E-07  2.315020E+00
  3.400000E-02  2.810152E-01 -3.943048E-15 -3.980824E-04  4.247417E-15  1.518417E+00  1.960623E-01  5.627810E-08  8.954320E-06  3.554039E-07  2.315004E+00
  3.500000E-02  2.810135E-01 -4.705140E-15 -4.041569E-04  5.190972E-15  1.518412E+00  1.959560E-01  5.867293E-08  9.228299E-06  3.730201E-07  2.314989E+00
  3.600000E-02  2.810118E-01 -5.548987E-15 -4.101358E-04  6.114323E-15  1.518407E+00  1.958525E-01  6.123499E-08  9.499457E-06  3.922598E-07  2.314973E+00
  3.700000E-02  2.810101E-01 -6.478421E-15 -4.156819E-04  6.935183E-15  1.518402E+00  1.957517E-01  6.397120E-08  9.767392E-06  4.132281E-07  2.314958E+00
  3.800000E-02  2.810083E-01 -7.497245E-15 -4.211392E-04  7.562561E-15  1.518397E+00  1.956536E-01  6.688600E-08  1.003228E-05  4.360136E-07  2.314942E+00
  3.900000E-02  2.810066E-01 -8.609182E-15 -4.261710E-04  7.903658E-15  1.518392E+00  1.955578E-01  6.999798E-08  1.029337E-05  4.607309E-07  2.314927E+00
  4.000000E-02  2.810048E-01 -9.817916E-15 -4.312962E-04  7.861967E-15  1.518387E+00  1.954644E-01  7.330032E-08  1.055158E-05  4.874657E-07  2.314911E+00
  4.100000E-02  2.810031E-01 -1.112699E-14 -4.356601E-04  7.343248E-15  1.518382E+00  1.953733E-01  7.679302E-08  1.080458E-05  5.162045E-07  2.314895E+00
  4.200000E-02  2.810013E-01 -1.253993E-14 -4.403132E-04  6.263854E-15  1.518376E+00  1.952843E-01  8.047972E-08  1.105507E-05  5.469625E-07  2.314880E+00
  4.300000E-02  2.809995E-01 -1.406010E-14 -4.442129E-04  4.562962E-15  1.518371E+00  1.951973E-01  8.436435E-08  1.129999E-05  5.798540E-07  2.314864E+00
  4.400000E-02  2.809977E-01 -1.569081E-14 -4.484104E-04  2.182305E-15  1.518366E+00  1.951123E-01  8.845043E-08  1.154205E-05  6.149754E-07  2.314848E+00
  4.500000E-02  2.809959E-01 -1.743517E-14 -4.518635E-04 -9.712692E-16  1.518361E+00  1.950291E-01  9.274137E-08  1.177833E-05  6.523488E-07  2.314832E+00
  4.600000E-02  2.809941E-01 -1.929625E-14 -4.556248E-04 -4.993725E-15  1.518356E+00  1.949477E-01  9.724026E-08  1.201153E-05  6.920319E-07  2.314817E+00
  4.700000E-02  2.809923E-01 -2.127698E-14 -4.586517E-04 -9.980098E-15  1.518350E+00  1.948680E-01  1.019493E-07  1.223826E-05  7.338073E-07  2.314801E+00
  4.800000E-02  2.809905E-01 -2.338001E-14 -4.619989E-04 -1.602789E-14  1.518345E+00  1.947899E-01  1.068613E-07  1.246136E-05  7.777008E-07  2.314785E+00
  4.900000E-02  2.809887E-01 -2.560829E-14 -4.649640E-04 -2.323412E-14  1.518340E+00  1.947133E-01  1.119789E-07  1.267875E-05  8.236934E-07  2.314769E+00
  5.000000E-02  2.809868E-01 -2.796430E-14 -4.677354E-04 -3.168983E-14  1.518334E+00  1.946382E-01  1.173139E-07  1.289084E-05  8.718086E-07  2.314753E+00
