 # time mean(w) mean(w**2)
  1.00000000E-03  9.99999999E-01  6.70097176E-20  6.58803403E-21  1.61380816E+00 -2.39146234E-11 -9.12711747E-01  9.99999999E-01  3.30501996E-09  8.42559077E-10  3.19757691E+00  8.36775828E-02  1.08226439E+00
  2.00000000E-03  9.99999998E-01  1.38536944E-19  1.84464953E-20  1.61380737E+00 -3.31437285E-11 -9.12712489E-01  9.99999998E-01  1.13920205E-08  1.94875004E-09  3.19756852E+00  8.36756292E-02  1.08226324E+00
  3.00000000E-03  9.99999998E-01  2.05546662E-19  3.50106952E-20  1.61380658E+00 -4.29413048E-11 -9.12713208E-01  9.99999998E-01  2.40322379E-08  3.61993652E-09  3.19756020E+00  8.36739651E-02  1.08226182E+00
  4.00000000E-03  9.99999997E-01  2.73309298E-19  4.10340406E-20  1.61380618E+00 -1.06892248E-10 -9.12713553E-01  9.99999998E-01  4.08590448E-08  5.75871423E-09  3.19755388E+00  8.36729741E-02  1.08226056E+00
  5.00000000E-03  9.99999996E-01  3.16225634E-19  4.89396814E-20  1.61380580E+00 -6.84862660E-11 -9.12713895E-01  9.99999999E-01  6.16305151E-08  8.31675480E-09  3.19754685E+00  8.36712883E-02  1.08226007E+00
  6.00000000E-03  9.99999995E-01  3.83235351E-19  5.08219768E-20  1.61380541E+00 -1.58695581E-10 -9.12714220E-01  9.99999999E-01  8.58648930E-08  1.12114316E-08  3.19754004E+00  8.36703717E-02  1.08225884E+00
  7.00000000E-03  9.99999994E-01  4.29163360E-19  4.85632223E-20  1.61380505E+00 -2.14882063E-11 -9.12714544E-01  1.00000000E+00  1.13474840E-07  1.44355215E-08  3.19753254E+00  8.36687669E-02  1.08225838E+00
  8.00000000E-03  9.99999993E-01  4.78855960E-19  5.08219768E-20  1.61380468E+00  1.32281470E-11 -9.12714849E-01  1.00000000E+00  1.44015788E-07  1.79043132E-08  3.19752529E+00  8.36679375E-02  1.08225718E+00
  9.00000000E-03  9.99999992E-01  5.30054395E-19  4.93161405E-20  1.61380434E+00 -1.79210319E-10 -9.12715154E-01  1.00000000E+00  1.77373691E-07  2.16428279E-08  3.19751733E+00  8.36664182E-02  1.08225675E+00
  1.00000000E-02  9.99999990E-01  5.73723650E-19  6.24922086E-20  1.61380400E+00 -1.32518971E-10 -9.12715441E-01  1.00000000E+00  2.13136721E-07  2.55537412E-08  3.19750963E+00  8.36656763E-02  1.08225559E+00
  1.10000000E-02  9.99999989E-01  6.31698349E-19  4.59280087E-20  1.61380368E+00 -4.95200794E-12 -9.12715728E-01  1.00000000E+00  2.51211157E-07  2.97037676E-08  3.19750122E+00  8.36642398E-02  1.08225521E+00
  1.20000000E-02  9.99999988E-01  6.75367603E-19  4.06575815E-20  1.61380336E+00 -1.28942529E-10 -9.12715997E-01  1.00000000E+00  2.91213185E-07  3.39719027E-08  3.19749306E+00  8.36635819E-02  1.08225409E+00
  1.30000000E-02  9.99999987E-01  7.34848139E-19  3.16225634E-20  1.61380306E+00 -1.26471389E-10 -9.12716267E-01  1.00000000E+00  3.33042395E-07  3.84638452E-08  3.19748418E+00  8.36622237E-02  1.08225375E+00
  1.40000000E-02  9.99999985E-01  7.58188603E-19  3.01167270E-20  1.61380276E+00 -8.78484076E-11 -9.12716521E-01  1.00000000E+00  3.76252091E-07  4.30311134E-08  3.19747556E+00  8.36616447E-02  1.08225267E+00
  1.50000000E-02  9.99999984E-01  8.04869529E-19  3.31283997E-20  1.61380249E+00 -2.85846963E-11 -9.12716775E-01  1.00000000E+00  4.20842491E-07  4.78110068E-08  3.19746622E+00  8.36603596E-02  1.08225238E+00
  1.60000000E-02  9.99999983E-01  8.35739175E-19  4.51750905E-20  1.61380221E+00  3.47269929E-10 -9.12717013E-01  1.00000000E+00  4.66361881E-07  5.26274437E-08  3.19745713E+00  8.36598548E-02  1.08225136E+00
  1.70000000E-02  9.99999981E-01  8.70373411E-19  5.94805359E-20  1.61380195E+00  2.52553780E-10 -9.12717253E-01  1.00000000E+00  5.12800848E-07  5.76532026E-08  3.19744731E+00  8.36586380E-02  1.08225111E+00
  1.80000000E-02  9.99999980E-01  9.08772238E-19  6.55038813E-20  1.61380170E+00  2.16551024E-10 -9.12717477E-01  1.00000000E+00  5.59601263E-07  6.26759068E-08  3.19743776E+00  8.36582021E-02  1.08225014E+00
  1.90000000E-02  9.99999978E-01  9.58464837E-19  6.55038813E-20  1.61380146E+00  2.53135229E-10 -9.12717703E-01  1.00000000E+00  6.06956807E-07  6.79193123E-08  3.19742746E+00  8.36570491E-02  1.08224995E+00
  2.00000000E-02  9.99999977E-01  9.72017364E-19  6.02334540E-20  1.61380123E+00  8.27410671E-11 -9.12717913E-01  1.00000000E+00  6.54265594E-07  7.31177226E-08  3.19741743E+00  8.36566773E-02  1.08224903E+00
  2.10000000E-02  9.99999975E-01  1.00514576E-18  6.39980449E-20  1.61380101E+00  3.11811817E-10 -9.12718126E-01  1.00000000E+00  7.01722078E-07  7.85591746E-08  3.19740665E+00  8.36555825E-02  1.08224890E+00
  2.20000000E-02  9.99999974E-01  1.02698039E-18  5.87276177E-20  1.61380079E+00  5.68685469E-10 -9.12718325E-01  1.00000000E+00  7.48702547E-07  8.39215451E-08  3.19739615E+00  8.36552680E-02  1.08224803E+00
  2.30000000E-02  9.99999972E-01  1.05107377E-18  6.24922086E-20  1.61380059E+00  8.58508764E-10 -9.12718526E-01  1.00000000E+00  7.95383472E-07  8.95524328E-08  3.19738489E+00  8.36542260E-02  1.08224795E+00
  2.40000000E-02  9.99999970E-01  1.07215548E-18  4.66809269E-20  1.61380038E+00  1.09539708E-09 -9.12718713E-01  1.00000000E+00  8.41295051E-07  9.50719757E-08  3.19737391E+00  8.36539639E-02  1.08224714E+00
  2.50000000E-02  9.99999968E-01  1.08194342E-18  4.96925996E-20  1.61380019E+00  9.85473511E-10 -9.12718903E-01  1.00000000E+00  8.86747312E-07  1.00886184E-07  3.19736218E+00  8.36529710E-02  1.08224711E+00
  2.60000000E-02  9.99999967E-01  1.10151929E-18  3.99046633E-20  1.61380000E+00  9.50525899E-10 -9.12719080E-01  1.00000000E+00  9.31099226E-07  1.06557576E-07  3.19735072E+00  8.36527567E-02  1.08224635E+00
  2.70000000E-02  9.99999965E-01  1.11130723E-18  2.78579725E-20  1.61379982E+00  7.29813210E-10 -9.12719260E-01  1.00000000E+00  9.74786365E-07  1.12550650E-07  3.19733852E+00  8.36518095E-02  1.08224639E+00
  2.80000000E-02  9.99999963E-01  1.13163602E-18  2.10817089E-20  1.61379965E+00  1.78095532E-10 -9.12719427E-01  1.00000000E+00  1.01711003E-06  1.18370855E-07  3.19732658E+00  8.36516388E-02  1.08224569E+00
  2.90000000E-02  9.99999961E-01  1.15271773E-18  3.01167270E-20  1.61379948E+00 -1.48163148E-11 -9.12719599E-01  1.00000000E+00  1.05847207E-06  1.24540846E-07  3.19731391E+00  8.36507340E-02  1.08224577E+00
  3.00000000E-02  9.99999959E-01  1.17154068E-18  1.43054453E-20  1.61379932E+00  2.95002911E-11 -9.12719757E-01  1.00000000E+00  1.09839926E-06  1.30510538E-07  3.19730150E+00  8.36506032E-02  1.08224513E+00
  3.10000000E-02  9.99999957E-01  1.17831694E-18  1.05408545E-20  1.61379916E+00  3.59058912E-10 -9.12719920E-01  1.00000000E+00  1.13744453E-06  1.36856144E-07  3.19728836E+00  8.36497376E-02  1.08224527E+00
  3.20000000E-02  9.99999955E-01  1.19488114E-18  1.05408545E-20  1.61379901E+00  9.12562020E-10 -9.12720071E-01  1.00000000E+00  1.17489019E-06  1.42977072E-07  3.19727549E+00  8.36496430E-02  1.08224468E+00
  3.30000000E-02  9.99999953E-01  1.20617492E-18 -1.95758726E-20  1.61379886E+00  1.07240477E-09 -9.12720227E-01  1.00000000E+00  1.21132999E-06  1.49495628E-07  3.19726189E+00  8.36488135E-02  1.08224489E+00
  3.40000000E-02  9.99999951E-01  1.20466908E-18 -3.61400724E-20  1.61379871E+00  1.54187900E-09 -9.12720370E-01  1.00000000E+00  1.24608680E-06  1.55769132E-07  3.19724855E+00  8.36487515E-02  1.08224435E+00
  3.50000000E-02  9.99999949E-01  1.21822161E-18 -4.51750905E-20  1.61379858E+00  1.86880916E-09 -9.12720519E-01  1.00000000E+00  1.27968684E-06  1.62459098E-07  3.19723449E+00  8.36479554E-02  1.08224460E+00
  3.60000000E-02  9.99999947E-01  1.21671577E-18 -6.02334540E-20  1.61379844E+00  1.92471059E-09 -9.12720657E-01  1.00000001E+00  1.31178807E-06  1.68888390E-07  3.19722070E+00  8.36479235E-02  1.08224412E+00
  3.70000000E-02  9.99999944E-01  1.19789282E-18 -7.22801448E-20  1.61379831E+00  1.66682329E-09 -9.12720800E-01  1.00000001E+00  1.36008205E-06  1.76566071E-07  3.19732595E+00  8.36677795E-02  1.08226254E+00
  3.80000000E-02  9.99999941E-01  1.20165741E-18 -7.67976539E-20  1.61379771E+00  2.18550404E-09 -9.12720751E-01  1.00000001E+00  1.36242178E-06  1.83044445E-07  3.19731180E+00  8.36676382E-02  1.08226170E+00
  3.90000000E-02  9.99999937E-01  1.17605819E-18 -8.43268356E-20  1.61379716E+00  2.63227943E-09 -9.12720720E-01  1.00000001E+00  1.36528229E-06  1.89377921E-07  3.19729722E+00  8.36669455E-02  1.08226172E+00
  4.00000000E-02  9.99999933E-01  1.17756403E-18 -9.48676901E-20  1.61379663E+00  3.04486021E-09 -9.12720689E-01  1.00000001E+00  1.36823352E-06  1.95150223E-07  3.19728313E+00  8.36670684E-02  1.08226107E+00
  4.10000000E-02  9.99999929E-01  1.17756403E-18 -9.63735264E-20  1.61379613E+00  3.34629104E-09 -9.12720672E-01  1.00000002E+00  1.36993512E-06  2.00875579E-07  3.19726848E+00  8.36664874E-02  1.08226124E+00
  4.20000000E-02  9.99999925E-01  1.16099983E-18 -1.12937726E-19  1.61379565E+00  3.67897973E-09 -9.12720653E-01  1.00000002E+00  1.37061233E-06  2.06094379E-07  3.19725421E+00  8.36666973E-02  1.08226071E+00
  4.30000000E-02  9.99999922E-01  1.14142395E-18 -1.14443563E-19  1.61379520E+00  4.09447052E-09 -9.12720646E-01  1.00000003E+00  1.36929420E-06  2.11387477E-07  3.19723933E+00  8.36661930E-02  1.08226100E+00
  4.40000000E-02  9.99999918E-01  1.13991812E-18 -1.32513599E-19  1.61379476E+00  4.50549553E-09 -9.12720636E-01  1.00000004E+00  1.36659726E-06  2.16260978E-07  3.19722479E+00  8.36664708E-02  1.08226057E+00
  4.50000000E-02  9.99999914E-01  1.13088310E-18 -1.17455235E-19  1.61379434E+00  4.90812360E-09 -9.12720638E-01  1.00000005E+00  1.36186841E-06  2.21268664E-07  3.19720960E+00  8.36660281E-02  1.08226096E+00
  4.60000000E-02  9.99999911E-01  1.08570801E-18 -1.18961072E-19  1.61379393E+00  5.29942745E-09 -9.12720637E-01  1.00000006E+00  1.35592120E-06  2.25928412E-07  3.19719474E+00  8.36663611E-02  1.08226062E+00
  4.70000000E-02  9.99999907E-01  1.07667299E-18 -1.11431890E-19  1.61379354E+00  5.70312003E-09 -9.12720646E-01  1.00000006E+00  1.34827859E-06  2.30738858E-07  3.19717921E+00  8.36659691E-02  1.08226109E+00
  4.80000000E-02  9.99999904E-01  1.06010879E-18 -1.03902708E-19  1.61379315E+00  6.09006002E-09 -9.12720652E-01  1.00000007E+00  1.33990785E-06  2.35252408E-07  3.19716401E+00  8.36663479E-02  1.08226083E+00
  4.90000000E-02  9.99999900E-01  1.03601541E-18 -8.88443447E-20  1.61379278E+00  6.49436670E-09 -9.12720667E-01  1.00000008E+00  1.33027089E-06  2.39915280E-07  3.19714814E+00  8.36659985E-02  1.08226137E+00
  5.00000000E-02  9.99999897E-01  1.01794537E-18 -7.52918175E-20  1.61379241E+00  6.87706439E-09 -9.12720678E-01  1.00000009E+00  1.32030686E-06  2.44321452E-07  3.19713259E+00  8.36664161E-02  1.08226118E+00
