 # time mean(w) mean(w**2)
  1.00000000E-03  9.99999999E-01  6.24922086E-20  3.76459088E-21  1.61380821E+00  7.05539947E-12 -9.12711723E-01  9.99999999E-01  3.30418926E-09  8.43641569E-10  3.19757694E+00  8.36775746E-02  1.08226452E+00
  2.00000000E-03  9.99999998E-01  1.18961072E-19  1.50583635E-21  1.61380736E+00  1.32995652E-11 -9.12712515E-01  9.99999998E-01  1.13884684E-08  1.95295385E-09  3.19756830E+00  8.36755281E-02  1.08226333E+00
  3.00000000E-03  9.99999998E-01  1.76935771E-19  6.02334540E-21  1.61380652E+00  2.12766780E-11 -9.12713262E-01  9.99999998E-01  2.40262694E-08  3.62868757E-09  3.19755980E+00  8.36738040E-02  1.08226188E+00
  4.00000000E-03  9.99999997E-01  2.46204243E-19  0.00000000E+00  1.61380612E+00  3.02805127E-11 -9.12713615E-01  9.99999998E-01  4.08472598E-08  5.77274604E-09  3.19755348E+00  8.36728153E-02  1.08226061E+00
  5.00000000E-03  9.99999996E-01  3.07190616E-19  3.38813179E-21  1.61380572E+00  3.70665227E-11 -9.12713965E-01  9.99999999E-01  6.16259866E-08  8.33546579E-09  3.19754637E+00  8.36710950E-02  1.08226012E+00
  6.00000000E-03  9.99999995E-01  3.76459088E-19 -6.39980449E-21  1.61380533E+00  4.93130351E-11 -9.12714295E-01  9.99999999E-01  8.58683958E-08  1.12352365E-08  3.19753954E+00  8.36701688E-02  1.08225888E+00
  7.00000000E-03  9.99999994E-01  4.26904605E-19 -5.08219768E-21  1.61380495E+00  5.97131295E-11 -9.12714622E-01  1.00000000E+00  1.13493040E-07  1.44633960E-08  3.19753198E+00  8.36685401E-02  1.08225842E+00
  8.00000000E-03  9.99999993E-01  4.86385141E-19 -9.41147719E-21  1.61380458E+00  7.62855458E-11 -9.12714931E-01  1.00000000E+00  1.44058944E-07  1.79374682E-08  3.19752472E+00  8.36677110E-02  1.08225721E+00
  9.00000000E-03  9.99999992E-01  5.24783968E-19  0.00000000E+00  1.61380423E+00  9.36835239E-11 -9.12715238E-01  1.00000000E+00  1.77442384E-07  2.16789914E-08  3.19751674E+00  8.36661778E-02  1.08225678E+00
  1.00000000E-02  9.99999990E-01  5.73723650E-19  8.28209993E-21  1.61380388E+00  1.12156173E-10 -9.12715528E-01  1.00000000E+00  2.13215930E-07  2.55948545E-08  3.19750904E+00  8.36654408E-02  1.08225561E+00
  1.10000000E-02  9.99999989E-01  6.21157495E-19  2.03287907E-20  1.61380356E+00  1.34927446E-10 -9.12715817E-01  1.00000000E+00  2.51309018E-07  2.97465515E-08  3.19750062E+00  8.36639964E-02  1.08225523E+00
  1.20000000E-02  9.99999988E-01  6.67085503E-19  3.80223679E-20  1.61380324E+00  1.54636458E-10 -9.12716088E-01  1.00000000E+00  2.91348752E-07  3.40189948E-08  3.19749246E+00  8.36633443E-02  1.08225410E+00
  1.30000000E-02  9.99999987E-01  7.08496003E-19  4.44221723E-20  1.61380294E+00  1.81723217E-10 -9.12716360E-01  1.00000000E+00  3.33224127E-07  3.85113047E-08  3.19748358E+00  8.36619819E-02  1.08225376E+00
  1.40000000E-02  9.99999985E-01  7.46894830E-19  5.45865677E-20  1.61380264E+00  2.05394843E-10 -9.12716615E-01  1.00000000E+00  3.76492681E-07  4.30819309E-08  3.19747497E+00  8.36614084E-02  1.08225268E+00
  1.50000000E-02  9.99999984E-01  7.75505721E-19  6.09863722E-20  1.61380236E+00  2.36926805E-10 -9.12716871E-01  1.00000000E+00  4.21079387E-07  4.78613395E-08  3.19746562E+00  8.36601219E-02  1.08225239E+00
  1.60000000E-02  9.99999983E-01  8.07128284E-19  6.62567994E-20  1.61380209E+00  2.65049624E-10 -9.12717111E-01  1.00000000E+00  4.66628506E-07  5.26805662E-08  3.19745654E+00  8.36596214E-02  1.08225135E+00
  1.70000000E-02  9.99999981E-01  8.39503766E-19  5.57159450E-20  1.61380183E+00  3.00531612E-10 -9.12717351E-01  1.00000000E+00  5.13109115E-07  5.77056366E-08  3.19744672E+00  8.36584058E-02  1.08225111E+00
  1.80000000E-02  9.99999980E-01  8.66608820E-19  5.64688632E-20  1.61380158E+00  3.32897204E-10 -9.12717577E-01  1.00000000E+00  5.60017549E-07  6.27308532E-08  3.19743717E+00  8.36579733E-02  1.08225013E+00
  1.90000000E-02  9.99999978E-01  8.98231383E-19  6.09863722E-20  1.61380134E+00  3.71768511E-10 -9.12717803E-01  1.00000000E+00  6.07417330E-07  6.79738803E-08  3.19742688E+00  8.36568238E-02  1.08224994E+00
  2.00000000E-02  9.99999977E-01  9.29101028E-19  6.77626358E-20  1.61380110E+00  4.07322275E-10 -9.12718015E-01  1.00000000E+00  6.54707590E-07  7.31750510E-08  3.19741685E+00  8.36564547E-02  1.08224901E+00
  2.10000000E-02  9.99999975E-01  9.57711919E-19  7.60447357E-20  1.61380089E+00  4.47167075E-10 -9.12718228E-01  1.00000000E+00  7.02197451E-07  7.86176620E-08  3.19740609E+00  8.36553658E-02  1.08224888E+00
  2.20000000E-02  9.99999974E-01  9.71264446E-19  8.20680811E-20  1.61380067E+00  4.82271303E-10 -9.12718428E-01  1.00000000E+00  7.49219481E-07  8.39829674E-08  3.19739558E+00  8.36550536E-02  1.08224801E+00
  2.30000000E-02  9.99999972E-01  9.96110746E-19  8.35739175E-20  1.61380046E+00  5.22754019E-10 -9.12718629E-01  1.00000000E+00  7.96070565E-07  8.96172341E-08  3.19738434E+00  8.36540189E-02  1.08224793E+00
  2.40000000E-02  9.99999970E-01  1.01643954E-18  9.71264446E-20  1.61380026E+00  5.58007881E-10 -9.12718816E-01  1.00000000E+00  8.42038151E-07  9.51416086E-08  3.19737336E+00  8.36537587E-02  1.08224711E+00
  2.50000000E-02  9.99999968E-01  1.04128584E-18  1.15949399E-19  1.61380007E+00  5.98769997E-10 -9.12719006E-01  1.00000000E+00  8.87470712E-07  1.00961967E-07  3.19736165E+00  8.36527744E-02  1.08224708E+00
  2.60000000E-02  9.99999967E-01  1.07893175E-18  1.31760681E-19  1.61379988E+00  6.33717073E-10 -9.12719183E-01  1.00000000E+00  9.31815358E-07  1.06639138E-07  3.19735019E+00  8.36525622E-02  1.08224632E+00
  2.70000000E-02  9.99999965E-01  1.10377805E-18  1.55101144E-19  1.61379971E+00  6.74428137E-10 -9.12719362E-01  1.00000000E+00  9.75584819E-07  1.12642180E-07  3.19733801E+00  8.36516243E-02  1.08224635E+00
  2.80000000E-02  9.99999963E-01  1.10754264E-18  1.70159508E-19  1.61379953E+00  7.07536579E-10 -9.12719529E-01  1.00000000E+00  1.01797338E-06  1.18470356E-07  3.19732607E+00  8.36514563E-02  1.08224565E+00
  2.90000000E-02  9.99999961E-01  1.13013018E-18  1.71665344E-19  1.61379937E+00  7.48345386E-10 -9.12719699E-01  1.00000000E+00  1.05957752E-06  1.24653971E-07  3.19731342E+00  8.36505611E-02  1.08224573E+00
  3.00000000E-02  9.99999959E-01  1.15347064E-18  1.86723707E-19  1.61379921E+00  7.81238241E-10 -9.12719857E-01  1.00000000E+00  1.09950750E-06  1.30633451E-07  3.19730102E+00  8.36504338E-02  1.08224509E+00
  3.10000000E-02  9.99999957E-01  1.17831694E-18  2.02534989E-19  1.61379905E+00  8.22578444E-10 -9.12720018E-01  1.00000000E+00  1.13847033E-06  1.36996688E-07  3.19728790E+00  8.36495777E-02  1.08224523E+00
  3.20000000E-02  9.99999955E-01  1.19713990E-18  2.33404634E-19  1.61379890E+00  8.55686775E-10 -9.12720168E-01  1.00000000E+00  1.17586935E-06  1.43129443E-07  3.19727503E+00  8.36494874E-02  1.08224464E+00
  3.30000000E-02  9.99999953E-01  1.21972744E-18  2.33404634E-19  1.61379876E+00  8.95782695E-10 -9.12720322E-01  1.00000000E+00  1.21236182E-06  1.49670614E-07  3.19726145E+00  8.36486670E-02  1.08224483E+00
  3.40000000E-02  9.99999951E-01  1.23026830E-18  2.47710080E-19  1.61379861E+00  9.25334352E-10 -9.12720464E-01  1.00000000E+00  1.24720684E-06  1.55958634E-07  3.19724812E+00  8.36486105E-02  1.08224430E+00
  3.50000000E-02  9.99999949E-01  1.24457374E-18  2.40180898E-19  1.61379848E+00  9.61575381E-10 -9.12720611E-01  1.00000001E+00  1.28099132E-06  1.62675880E-07  3.19723409E+00  8.36478228E-02  1.08224455E+00
  3.60000000E-02  9.99999947E-01  1.26339670E-18  2.36416307E-19  1.61379834E+00  9.87559997E-10 -9.12720747E-01  1.00000001E+00  1.31314333E-06  1.69120529E-07  3.19722031E+00  8.36477973E-02  1.08224406E+00
  3.70000000E-02  9.99999944E-01  1.25887919E-18  2.48462998E-19  1.61379822E+00  1.02000975E-09 -9.12720888E-01  1.00000001E+00  1.36127159E-06  1.76827364E-07  3.19732557E+00  8.36676602E-02  1.08226248E+00
  3.80000000E-02  9.99999941E-01  1.24306791E-18  2.48462998E-19  1.61379755E+00  1.56425797E-09 -9.12720817E-01  1.00000001E+00  1.36422194E-06  1.83976128E-07  3.19731117E+00  8.36674840E-02  1.08226158E+00
  3.90000000E-02  9.99999937E-01  1.25586752E-18  2.34910471E-19  1.61379699E+00  2.06215438E-09 -9.12720783E-01  1.00000001E+00  1.36697108E-06  1.90119256E-07  3.19729656E+00  8.36667640E-02  1.08226160E+00
  4.00000000E-02  9.99999933E-01  1.23629164E-18  2.24369616E-19  1.61379644E+00  2.49061396E-09 -9.12720748E-01  1.00000001E+00  1.36980106E-06  1.95672212E-07  3.19728242E+00  8.36668637E-02  1.08226094E+00
  4.10000000E-02  9.99999929E-01  1.23629164E-18  2.25875453E-19  1.61379594E+00  2.86122190E-09 -9.12720726E-01  1.00000002E+00  1.37136826E-06  2.01261182E-07  3.19726775E+00  8.36662687E-02  1.08226110E+00
  4.20000000E-02  9.99999925E-01  1.23478581E-18  2.18346271E-19  1.61379545E+00  3.17736989E-09 -9.12720701E-01  1.00000002E+00  1.37190443E-06  2.06394242E-07  3.19725346E+00  8.36664696E-02  1.08226057E+00
  4.30000000E-02  9.99999922E-01  1.22575079E-18  2.12322925E-19  1.61379499E+00  3.62382599E-09 -9.12720688E-01  1.00000003E+00  1.37043417E-06  2.11659295E-07  3.19723857E+00  8.36659612E-02  1.08226085E+00
  4.40000000E-02  9.99999918E-01  1.21219826E-18  2.15334598E-19  1.61379454E+00  4.04506203E-09 -9.12720673E-01  1.00000004E+00  1.36759940E-06  2.16525137E-07  3.19722401E+00  8.36662365E-02  1.08226041E+00
  4.50000000E-02  9.99999914E-01  1.20316324E-18  2.04793744E-19  1.61379412E+00  4.43936273E-09 -9.12720669E-01  1.00000005E+00  1.36277658E-06  2.21551448E-07  3.19720881E+00  8.36657937E-02  1.08226079E+00
  4.60000000E-02  9.99999911E-01  1.21219826E-18  2.04793744E-19  1.61379370E+00  4.80903706E-09 -9.12720662E-01  1.00000006E+00  1.35675851E-06  2.26232055E-07  3.19719394E+00  8.36661265E-02  1.08226045E+00
  4.70000000E-02  9.99999907E-01  1.21295118E-18  1.94252889E-19  1.61379331E+00  5.15699812E-09 -9.12720667E-01  1.00000007E+00  1.34903104E-06  2.31076169E-07  3.19717841E+00  8.36657359E-02  1.08226091E+00
  4.80000000E-02  9.99999904E-01  1.19563406E-18  1.83712035E-19  1.61379292E+00  5.48702086E-09 -9.12720667E-01  1.00000007E+00  1.34053710E-06  2.35620181E-07  3.19716320E+00  8.36661155E-02  1.08226064E+00
  4.90000000E-02  9.99999900E-01  1.19337531E-18  1.76182853E-19  1.61379255E+00  5.80071429E-09 -9.12720679E-01  1.00000008E+00  1.33081837E-06  2.40321857E-07  3.19714732E+00  8.36657682E-02  1.08226117E+00
  5.00000000E-02  9.99999897E-01  1.18509321E-18  1.82206198E-19  1.61379218E+00  6.10176940E-09 -9.12720686E-01  1.00000009E+00  1.32079876E-06  2.44760765E-07  3.19713177E+00  8.36661870E-02  1.08226098E+00
