 # time mean(w) mean(w**2)
  1.00000000E-03  9.99999999E-01  2.68358334E-14 -1.60615836E-13  1.61381625E+00 -2.78436812E-08 -9.12708394E-01  9.99999999E-01  3.31053338E-09  8.36261761E-10  3.19761441E+00  8.36885376E-02  1.08226963E+00
  2.00000000E-03  9.99999998E-01  3.32206981E-13 -1.33308459E-12  1.61381846E+00 -3.16403397E-10 -9.12707743E-01  9.99999998E-01  1.14148697E-08  1.91961268E-09  3.19761979E+00  8.36906893E-02  1.08227037E+00
  3.00000000E-03  9.99999998E-01  9.59728632E-13 -3.28381668E-12  1.61382035E+00  3.60636261E-08 -9.12707180E-01  9.99999998E-01  2.40780181E-08  3.54882658E-09  3.19762373E+00  8.36926732E-02  1.08227066E+00
  4.00000000E-03  9.99999997E-01  2.17915565E-12 -6.56663182E-12  1.61382120E+00  5.64380376E-08 -9.12706916E-01  9.99999998E-01  4.09311271E-08  5.62587541E-09  3.19762311E+00  8.36933790E-02  1.08227020E+00
  5.00000000E-03  9.99999996E-01  3.83910105E-12 -1.05088449E-11  1.61382201E+00  7.65288691E-08 -9.12706673E-01  9.99999999E-01  6.17354676E-08  8.10221280E-09  3.19762152E+00  8.36932843E-02  1.08227050E+00
  6.00000000E-03  9.99999995E-01  5.75458442E-12 -1.45316186E-11  1.61382278E+00  9.55336143E-08 -9.12706433E-01  9.99999999E-01  8.60079421E-08  1.08850790E-08  3.19762002E+00  8.36939065E-02  1.08227004E+00
  7.00000000E-03  9.99999994E-01  8.16275057E-12 -2.01438610E-11  1.61382353E+00  1.13593493E-07 -9.12706211E-01  1.00000000E+00  1.13661923E-07  1.39760993E-08  3.19761762E+00  8.36937570E-02  1.08227034E+00
  8.00000000E-03  9.99999993E-01  1.11172743E-11 -2.56937301E-11  1.61382425E+00  1.30598300E-07 -9.12705988E-01  1.00000000E+00  1.44260698E-07  1.72830422E-08  3.19761534E+00  8.36943399E-02  1.08226989E+00
  9.00000000E-03  9.99999992E-01  1.44439727E-11 -3.26499763E-11  1.61382495E+00  1.46474093E-07 -9.12705779E-01  1.00000000E+00  1.77671181E-07  2.08400938E-08  3.19761220E+00  8.36941611E-02  1.08227021E+00
  1.00000000E-02  9.99999990E-01  1.85610071E-11 -3.87908902E-11  1.61382563E+00  1.61195531E-07 -9.12705568E-01  1.00000000E+00  2.13483805E-07  2.45432063E-08  3.19760920E+00  8.36947221E-02  1.08226978E+00
  1.10000000E-02  9.99999989E-01  2.27468977E-11 -4.59540695E-11  1.61382630E+00  1.74740396E-07 -9.12705368E-01  1.00000000E+00  2.51621860E-07  2.84665961E-08  3.19760536E+00  8.36945271E-02  1.08227012E+00
  1.20000000E-02  9.99999988E-01  2.78707882E-11 -5.11677162E-11  1.61382695E+00  1.87124889E-07 -9.12705164E-01  1.00000000E+00  2.91685855E-07  3.24857433E-08  3.19760167E+00  8.36950759E-02  1.08226971E+00
  1.30000000E-02  9.99999987E-01  3.27993339E-11 -5.69356531E-11  1.61382758E+00  1.98323908E-07 -9.12704970E-01  1.00000000E+00  3.33572979E-07  3.67059915E-08  3.19759716E+00  8.36948721E-02  1.08227009E+00
  1.40000000E-02  9.99999985E-01  3.86822576E-11 -5.93080584E-11  1.61382820E+00  2.08345747E-07 -9.12704771E-01  1.00000000E+00  3.76855363E-07  4.09861897E-08  3.19759280E+00  8.36954144E-02  1.08226971E+00
  1.50000000E-02  9.99999984E-01  4.42092195E-11 -6.17156934E-11  1.61382882E+00  2.17157891E-07 -9.12704582E-01  1.00000000E+00  4.21463769E-07  4.54529600E-08  3.19758763E+00  8.36952061E-02  1.08227011E+00
  1.60000000E-02  9.99999983E-01  5.06364988E-11 -5.90210946E-11  1.61382941E+00  2.24768936E-07 -9.12704385E-01  1.00000000E+00  4.67007861E-07  4.99472965E-08  3.19758262E+00  8.36957453E-02  1.08226976E+00
  1.70000000E-02  9.99999981E-01  5.65692091E-11 -5.58072364E-11  1.61383000E+00  2.31196468E-07 -9.12704198E-01  1.00000001E+00  5.13452509E-07  5.46216778E-08  3.19757681E+00  8.36955354E-02  1.08227020E+00
  1.80000000E-02  9.99999980E-01  6.33239794E-11 -4.55744715E-11  1.61383058E+00  2.36482655E-07 -9.12704003E-01  1.00000001E+00  5.60264846E-07  5.92913960E-08  3.19757116E+00  8.36960736E-02  1.08226989E+00
  1.90000000E-02  9.99999978E-01  6.94031210E-11 -3.42488647E-11  1.61383115E+00  2.40566565E-07 -9.12703817E-01  1.00000001E+00  6.07577291E-07  6.41449858E-08  3.19756471E+00  8.36958635E-02  1.08227036E+00
  2.00000000E-02  9.99999977E-01  7.62151780E-11 -1.38255803E-11  1.61383170E+00  2.43533465E-07 -9.12703624E-01  1.00000001E+00  6.54862923E-07  6.89633813E-08  3.19755844E+00  8.36964021E-02  1.08227009E+00
  2.10000000E-02  9.99999975E-01  8.21168576E-11  8.26616549E-12  1.61383225E+00  2.45295781E-07 -9.12703438E-01  1.00000001E+00  7.02221257E-07  7.39771913E-08  3.19755138E+00  8.36961930E-02  1.08227060E+00
  2.20000000E-02  9.99999974E-01  8.86506767E-11  4.16542365E-11  1.61383279E+00  2.45995136E-07 -9.12703244E-01  1.00000001E+00  7.49069361E-07  7.89294103E-08  3.19754449E+00  8.36967327E-02  1.08227036E+00
  2.30000000E-02  9.99999972E-01  9.39969350E-11  7.72742540E-11  1.61383332E+00  2.45504718E-07 -9.12703058E-01  1.00000001E+00  7.95702398E-07  8.40909952E-08  3.19753682E+00  8.36965254E-02  1.08227091E+00
  2.40000000E-02  9.99999970E-01  9.98597196E-11  1.26473048E-10  1.61383384E+00  2.43998968E-07 -9.12702864E-01  1.00000001E+00  8.41481643E-07  8.91674707E-08  3.19752934E+00  8.36970671E-02  1.08227071E+00
  2.50000000E-02  9.99999969E-01  1.04229148E-10  1.78446158E-10  1.61383436E+00  2.41328275E-07 -9.12702678E-01  1.00000001E+00  8.86739286E-07  9.44694393E-08  3.19752108E+00  8.36968621E-02  1.08227130E+00
  2.60000000E-02  9.99999967E-01  1.08983580E-10  2.46333599E-10  1.61383486E+00  2.37686774E-07 -9.12702484E-01  1.00000001E+00  9.30884244E-07  9.96649803E-08  3.19751301E+00  8.36974061E-02  1.08227114E+00
  2.70000000E-02  9.99999965E-01  1.11921402E-10  3.17513010E-10  1.61383536E+00  2.32906692E-07 -9.12702297E-01  1.00000001E+00  9.74277184E-07  1.05103219E-07  3.19750417E+00  8.36972038E-02  1.08227176E+00
  2.80000000E-02  9.99999963E-01  1.15097992E-10  4.06969848E-10  1.61383584E+00  2.27192282E-07 -9.12702103E-01  1.00000001E+00  1.01629000E-06  1.10417051E-07  3.19749553E+00  8.36977504E-02  1.08227164E+00
  2.90000000E-02  9.99999961E-01  1.16128375E-10  5.00211551E-10  1.61383633E+00  2.20371554E-07 -9.12701915E-01  1.00000001E+00  1.05747662E-06  1.15991223E-07  3.19748613E+00  8.36975511E-02  1.08227230E+00
  3.00000000E-02  9.99999959E-01  1.17235840E-10  6.14102287E-10  1.61383680E+00  2.12652471E-07 -9.12701720E-01  1.00000001E+00  1.09699537E-06  1.21427118E-07  3.19747694E+00  8.36981005E-02  1.08227222E+00
  3.10000000E-02  9.99999957E-01  1.15876115E-10  7.32246393E-10  1.61383727E+00  2.03870074E-07 -9.12701533E-01  1.00000001E+00  1.13565196E-06  1.27140973E-07  3.19746699E+00  8.36979042E-02  1.08227292E+00
  3.20000000E-02  9.99999955E-01  1.14409796E-10  8.73408289E-10  1.61383773E+00  1.94221601E-07 -9.12701337E-01  1.00000001E+00  1.17253658E-06  1.32707929E-07  3.19745725E+00  8.36984563E-02  1.08227288E+00
  3.30000000E-02  9.99999953E-01  1.10183679E-10  1.01926646E-09  1.61383818E+00  1.83548245E-07 -9.12701149E-01  1.00000001E+00  1.20846920E-06  1.38566803E-07  3.19744677E+00  8.36982628E-02  1.08227361E+00
  3.40000000E-02  9.99999951E-01  1.05634659E-10  1.19050149E-09  1.61383862E+00  1.72040385E-07 -9.12700954E-01  1.00000001E+00  1.24267762E-06  1.44273140E-07  3.19743651E+00  8.36988175E-02  1.08227361E+00
  3.50000000E-02  9.99999949E-01  9.80824280E-11  1.36684897E-09  1.61383906E+00  1.59541507E-07 -9.12700765E-01  1.00000002E+00  1.27583037E-06  1.50285301E-07  3.19742550E+00  8.36986265E-02  1.08227438E+00
  3.60000000E-02  9.99999947E-01  8.99506733E-11  1.57091405E-09  1.61383949E+00  1.46237664E-07 -9.12700570E-01  1.00000002E+00  1.30723499E-06  1.56137283E-07  3.19741472E+00  8.36991832E-02  1.08227440E+00
  3.70000000E-02  9.99999945E-01  7.86349059E-11  1.78048388E-09  1.61383992E+00  1.31975960E-07 -9.12700382E-01  1.00000002E+00  1.35484280E-06  1.63176234E-07  3.19752307E+00  8.37196993E-02  1.08229334E+00
  3.80000000E-02  9.99999941E-01  1.26934987E-11  2.09905291E-09  1.61383963E+00  1.09779138E-07 -9.12700054E-01  1.00000002E+00  1.35734455E-06  1.69195879E-07  3.19751021E+00  8.37195625E-02  1.08229311E+00
  3.90000000E-02  9.99999937E-01 -4.32629321E-11  2.40395771E-09  1.61383947E+00  8.83277150E-08 -9.12699761E-01  1.00000002E+00  1.35975665E-06  1.74959944E-07  3.19749722E+00  8.37189986E-02  1.08229375E+00
  4.00000000E-02  9.99999934E-01 -9.49362860E-11  2.73750903E-09  1.61383935E+00  6.95518444E-08 -9.12699468E-01  1.00000003E+00  1.36227403E-06  1.80312283E-07  3.19748477E+00  8.37192913E-02  1.08229369E+00
  4.10000000E-02  9.99999930E-01 -1.46187111E-10  3.07183388E-09  1.61383926E+00  4.96169527E-08 -9.12699190E-01  1.00000003E+00  1.36355351E-06  1.85729705E-07  3.19747178E+00  8.37188933E-02  1.08229445E+00
  4.20000000E-02  9.99999926E-01 -1.94698071E-10  3.44033168E-09  1.61383918E+00  2.82152454E-08 -9.12698908E-01  1.00000004E+00  1.36385533E-06  1.90744743E-07  3.19745916E+00  8.37192862E-02  1.08229449E+00
  4.30000000E-02  9.99999923E-01 -2.44249507E-10  3.81977268E-09  1.61383911E+00  4.93885515E-09 -9.12698640E-01  1.00000005E+00  1.36219842E-06  1.95863698E-07  3.19744591E+00  8.37189612E-02  1.08229534E+00
  4.40000000E-02  9.99999919E-01 -2.91159631E-10  4.23835211E-09  1.61383905E+00 -1.98826568E-08 -9.12698367E-01  1.00000006E+00  1.35916808E-06  2.00612714E-07  3.19743299E+00  8.37194107E-02  1.08229546E+00
  4.50000000E-02  9.99999916E-01 -3.40240261E-10  4.67250051E-09  1.61383901E+00 -4.61292006E-08 -9.12698107E-01  1.00000007E+00  1.35407557E-06  2.05490213E-07  3.19741940E+00  8.37191329E-02  1.08229638E+00
  4.60000000E-02  9.99999912E-01 -3.85927968E-10  5.14960728E-09  1.61383896E+00 -7.35232902E-08 -9.12697843E-01  1.00000008E+00  1.34778835E-06  2.10065282E-07  3.19740612E+00  8.37196222E-02  1.08229657E+00
  4.70000000E-02  9.99999909E-01 -4.34198815E-10  5.64340819E-09  1.61383893E+00 -1.02034855E-07 -9.12697589E-01  1.00000008E+00  1.33985097E-06  2.14784127E-07  3.19739217E+00  8.37193796E-02  1.08229755E+00
  4.80000000E-02  9.99999905E-01 -4.78924896E-10  6.18359461E-09  1.61383889E+00 -1.31365913E-07 -9.12697333E-01  1.00000009E+00  1.33118927E-06  2.19265564E-07  3.19737854E+00  8.37198993E-02  1.08229779E+00
  4.90000000E-02  9.99999902E-01 -5.26245301E-10  6.73972505E-09  1.61383887E+00 -1.61597114E-07 -9.12697087E-01  1.00000010E+00  1.32126110E-06  2.23892887E-07  3.19736424E+00  8.37196841E-02  1.08229883E+00
  5.00000000E-02  9.99999899E-01 -5.71091848E-10  7.34533105E-09  1.61383884E+00 -1.92447655E-07 -9.12696838E-01  1.00000011E+00  1.31104720E-06  2.28332543E-07  3.19735025E+00  8.37202280E-02  1.08229913E+00
