 # time mean(w) mean(w**2)
  1.00000000E-03  9.99999999E-01  3.42289557E-10  2.17194312E-10  1.61380939E+00  8.92198044E-12 -9.12710424E-01 -9.97684030E-11  9.99999999E-01  2.46783871E-09  9.06111577E-10  3.19758773E+00  8.36805483E-02  1.08226462E+00  4.75608874E-09
  2.00000000E-03  9.99999999E-01  1.72355948E-09  1.03488549E-09  1.61380937E+00  1.80371520E-11 -9.12710422E-01 -3.92614095E-10  9.99999998E-01  8.31072877E-09  2.17992751E-09  3.19758623E+00  8.36802363E-02  1.08226412E+00  1.65323358E-08
  3.00000000E-03  9.99999998E-01  4.25533261E-09  2.46511885E-09  1.61380934E+00  2.73562531E-11 -9.12710419E-01 -9.04515858E-10  9.99999997E-01  1.76092967E-08  4.10062192E-09  3.19758445E+00  8.36799318E-02  1.08226365E+00  3.23118917E-08
  4.00000000E-03  9.99999997E-01  7.90133047E-09  4.52344246E-09  1.61380930E+00  3.68967943E-11 -9.12710417E-01 -1.82226225E-09  9.99999996E-01  2.99484467E-08  6.55521432E-09  3.19758239E+00  8.36796305E-02  1.08226321E+00  5.03420401E-08
  5.00000000E-03  9.99999996E-01  1.23490536E-08  7.04908478E-09  1.61380925E+00  4.63472717E-11 -9.12710415E-01 -3.07736309E-09  9.99999995E-01  4.49154472E-08  9.43105916E-09  3.19758006E+00  8.36793366E-02  1.08226281E+00  6.96094267E-08
  6.00000000E-03  9.99999995E-01  1.74304936E-08  1.00541370E-08  1.61380920E+00  5.54206927E-11 -9.12710413E-01 -4.32631853E-09  9.99999994E-01  6.20575489E-08  1.26403735E-08  3.19757747E+00  8.36790471E-02  1.08226244E+00  8.93933329E-08
  7.00000000E-03  9.99999994E-01  2.27427108E-08  1.32965596E-08  1.61380914E+00  6.27268422E-11 -9.12710411E-01 -5.37175522E-09  9.99999994E-01  8.05392952E-08  1.61070067E-08  3.19757463E+00  8.36787642E-02  1.08226209E+00  1.09108584E-07
  8.00000000E-03  9.99999993E-01  2.80753767E-08  1.63830127E-08  1.61380909E+00  6.85537059E-11 -9.12710408E-01 -5.73593233E-09  9.99999993E-01  1.00480508E-07  1.97784478E-08  3.19757154E+00  8.36784884E-02  1.08226177E+00  1.28560271E-07
  9.00000000E-03  9.99999992E-01  3.31039787E-08  1.93646831E-08  1.61380903E+00  3.43461395E-10 -9.12710406E-01 -5.15079587E-09  9.99999992E-01  1.21590101E-07  2.35971614E-08  3.19756819E+00  8.36782203E-02  1.08226148E+00  1.47477934E-07
  1.00000000E-02  9.99999991E-01  3.78175481E-08  2.23466044E-08  1.61380897E+00  6.22303419E-10 -9.12710404E-01 -3.36586552E-09  9.99999991E-01  1.43671059E-07  2.75155750E-08  3.19756461E+00  8.36779571E-02  1.08226122E+00  1.66029499E-07
  1.10000000E-02  9.99999990E-01  4.22136400E-08  2.53045212E-08  1.61380891E+00  9.05069871E-10 -9.12710401E-01 -4.18218707E-11  9.99999991E-01  1.66557045E-07  3.14941303E-08  3.19756077E+00  8.36776988E-02  1.08226099E+00  1.84035716E-07
  1.20000000E-02  9.99999989E-01  4.62951476E-08  2.82037601E-08  1.61380885E+00  1.19154657E-09 -9.12710399E-01  4.85146902E-09  9.99999990E-01  1.90104741E-07  3.54973445E-08  3.19755670E+00  8.36774436E-02  1.08226079E+00  2.01572365E-07
  1.30000000E-02  9.99999987E-01  4.99743536E-08  3.08029628E-08  1.61380879E+00  1.49428578E-09 -9.12710396E-01  1.15287494E-08  9.99999989E-01  2.14222371E-07  3.95156109E-08  3.19755239E+00  8.36771922E-02  1.08226062E+00  2.18668120E-07
  1.40000000E-02  9.99999986E-01  5.31296218E-08  3.32334475E-08  1.61380874E+00  1.47946539E-09 -9.12710394E-01  2.01151651E-08  9.99999988E-01  2.38859926E-07  4.35305077E-08  3.19754784E+00  8.36769480E-02  1.08226048E+00  2.35453450E-07
  1.50000000E-02  9.99999985E-01  5.58263582E-08  3.55263612E-08  1.61380868E+00  1.46251857E-09 -9.12710391E-01  3.05298188E-08  9.99999987E-01  2.63760746E-07  4.75125302E-08  3.19754305E+00  8.36767098E-02  1.08226037E+00  2.51940721E-07
  1.60000000E-02  9.99999984E-01  5.80608739E-08  3.78200109E-08  1.61380862E+00  1.42671526E-09 -9.12710388E-01  4.29806206E-08  9.99999986E-01  2.88830096E-07  5.14438426E-08  3.19753801E+00  8.36764774E-02  1.08226028E+00  2.68062439E-07
  1.70000000E-02  9.99999982E-01  5.97109230E-08  4.04763498E-08  1.61380857E+00  1.35968276E-09 -9.12710383E-01  5.70458156E-08  9.99999986E-01  3.13881502E-07  5.53242412E-08  3.19753274E+00  8.36762500E-02  1.08226022E+00  2.83770600E-07
  1.80000000E-02  9.99999981E-01  6.09382531E-08  4.33228612E-08  1.61380852E+00  1.29565306E-09 -9.12710376E-01  7.27616498E-08  9.99999985E-01  3.38789144E-07  5.91288237E-08  3.19752722E+00  8.36760300E-02  1.08226018E+00  2.99238865E-07
  1.90000000E-02  9.99999979E-01  6.17735422E-08  4.62209852E-08  1.61380847E+00  1.24646603E-09 -9.12710369E-01  8.99629293E-08  9.99999984E-01  3.63514453E-07  6.28360205E-08  3.19752147E+00  8.36758160E-02  1.08226018E+00  3.14317402E-07
  2.00000000E-02  9.99999978E-01  6.21910494E-08  4.90838967E-08  1.61380841E+00  1.20348783E-09 -9.12710362E-01  1.08371470E-07  9.99999983E-01  3.87976335E-07  6.64137923E-08  3.19751548E+00  8.36756084E-02  1.08226020E+00  3.28946813E-07
  2.10000000E-02  9.99999976E-01  6.22749265E-08  5.18212711E-08  1.61380836E+00  1.15982718E-09 -9.12710355E-01  1.27704403E-07  9.99999982E-01  4.12110999E-07  6.99209213E-08  3.19750925E+00  8.36754084E-02  1.08226024E+00  3.43189618E-07
  2.20000000E-02  9.99999975E-01  6.20035870E-08  5.44199447E-08  1.61380831E+00  1.11384252E-09 -9.12710348E-01  1.47783055E-07  9.99999981E-01  4.35870553E-07  7.33013619E-08  3.19750279E+00  8.36752145E-02  1.08226032E+00  3.56859851E-07
  2.30000000E-02  9.99999973E-01  6.14010537E-08  5.66232844E-08  1.61380827E+00  9.85564173E-10 -9.12710341E-01  1.68238437E-07  9.99999981E-01  4.59238688E-07  7.65660012E-08  3.19749610E+00  8.36750263E-02  1.08226041E+00  3.70074333E-07
  2.40000000E-02  9.99999971E-01  6.03543126E-08  5.82112844E-08  1.61380822E+00  5.17919652E-10 -9.12710335E-01  1.88716890E-07  9.99999980E-01  4.83331624E-07  7.98044506E-08  3.19752128E+00  8.36812894E-02  1.08226636E+00  3.83178319E-07
  2.50000000E-02  9.99999969E-01  8.08165638E-08  4.22518237E-08  1.61380818E+00  4.32039904E-10 -9.12710330E-01  1.14575539E-07  9.99999978E-01  5.01779564E-07  8.24514201E-08  3.19754662E+00  8.36875709E-02  1.08227232E+00  3.92368298E-07
  2.60000000E-02  9.99999966E-01  8.01609303E-08  1.24775381E-08  1.61380815E+00  4.26879883E-10 -9.12710326E-01 -4.57968491E-08  9.99999975E-01  5.14511742E-07  8.44599353E-08  3.19754001E+00  8.36874223E-02  1.08227250E+00  3.97977726E-07
  2.70000000E-02  9.99999962E-01  7.95786753E-08 -5.62864040E-09  1.61380812E+00  4.22649755E-10 -9.12710323E-01 -1.94524071E-07  9.99999972E-01  5.29146424E-07  8.64798219E-08  3.19753322E+00  8.36872854E-02  1.08227273E+00  4.04125349E-07
  2.80000000E-02  9.99999959E-01  7.89532927E-08 -1.49522636E-08  1.61380809E+00  4.00977899E-10 -9.12710321E-01 -3.31300047E-07  9.99999970E-01  5.44120437E-07  8.84903058E-08  3.19752622E+00  8.36871574E-02  1.08227301E+00  4.10406378E-07
  2.90000000E-02  9.99999956E-01  7.83412277E-08 -1.80626656E-08  1.61380806E+00  4.03620748E-10 -9.12710318E-01 -4.56542261E-07  9.99999969E-01  5.59941519E-07  9.05485821E-08  3.19754719E+00  8.36909644E-02  1.08227655E+00  4.17024683E-07
  3.00000000E-02  9.99999953E-01  8.36066163E-08 -2.00334416E-08  1.61380804E+00  6.51946589E-10 -9.12710317E-01 -4.83857846E-07  9.99999968E-01  5.68145908E-07  9.23245518E-08  3.19754013E+00  8.36908797E-02  1.08227693E+00  4.21268235E-07
  3.10000000E-02  9.99999950E-01  8.96815872E-08 -2.13114021E-08  1.61380801E+00  6.75452564E-10 -9.12710315E-01 -5.08593805E-07  9.99999967E-01  5.76992691E-07  9.41996961E-08  3.19753286E+00  8.36908032E-02  1.08227733E+00  4.26149517E-07
  3.20000000E-02  9.99999946E-01  9.62827408E-08 -2.23689675E-08  1.61380799E+00  7.29298677E-10 -9.12710313E-01 -5.31366958E-07  9.99999967E-01  5.87229257E-07  9.61412074E-08  3.19755354E+00  8.36946473E-02  1.08228101E+00  4.31914601E-07
  3.30000000E-02  9.99999943E-01  9.89291880E-08 -2.20282558E-08  1.61380796E+00  6.93559389E-10 -9.12710312E-01 -4.58045820E-07  9.99999968E-01  5.89565335E-07  9.78590246E-08  3.19754616E+00  8.36945851E-02  1.08228149E+00  4.35691989E-07
  3.40000000E-02  9.99999940E-01  1.01202346E-07 -2.29101064E-08  1.61380793E+00  6.14837107E-10 -9.12710310E-01 -3.88812865E-07  9.99999969E-01  5.92656327E-07  9.96567010E-08  3.19753858E+00  8.36945335E-02  1.08228200E+00  4.40550647E-07
  3.50000000E-02  9.99999937E-01  1.03195981E-07 -2.48552046E-08  1.61380790E+00  5.18252059E-10 -9.12710309E-01 -3.24048597E-07  9.99999971E-01  5.95471212E-07  1.01402101E-07  3.19753079E+00  8.36944915E-02  1.08228254E+00  4.45741651E-07
  3.60000000E-02  9.99999934E-01  1.04882200E-07 -2.77014069E-08  1.61380787E+00  8.66376477E-11 -9.12710308E-01 -2.63819717E-07  9.99999973E-01  5.97539422E-07  1.03069701E-07  3.19752279E+00  8.36944551E-02  1.08228310E+00  4.50808003E-07
  3.70000000E-02  9.99999931E-01  1.06344299E-07 -3.13500040E-08  1.61380784E+00 -3.14814255E-10 -9.12710307E-01 -2.08222986E-07  9.99999975E-01  5.98781232E-07  1.04656482E-07  3.19751458E+00  8.36944249E-02  1.08228369E+00  4.55466075E-07
  3.80000000E-02  9.99999927E-01  1.07584565E-07 -3.56288564E-08  1.61380781E+00 -6.46472696E-10 -9.12710306E-01 -1.57183932E-07  9.99999978E-01  5.99285089E-07  1.06199179E-07  3.19750617E+00  8.36944030E-02  1.08228430E+00  4.59739443E-07
  3.90000000E-02  9.99999924E-01  1.08682094E-07 -4.03361693E-08  1.61380778E+00 -9.52810164E-10 -9.12710305E-01 -1.10686691E-07  9.99999980E-01  5.99132455E-07  1.07745202E-07  3.19749757E+00  8.36943868E-02  1.08228493E+00  4.63587438E-07
  4.00000000E-02  9.99999921E-01  1.09697198E-07 -4.54642705E-08  1.61380775E+00 -1.31793405E-09 -9.12710305E-01 -6.85020239E-08  9.99999983E-01  5.98472034E-07  1.09300446E-07  3.19748877E+00  8.36943760E-02  1.08228558E+00  4.67047707E-07
  4.10000000E-02  9.99999918E-01  1.10643614E-07 -5.08776682E-08  1.61380772E+00 -1.96071077E-09 -9.12710304E-01 -3.05584040E-08  9.99999985E-01  5.97403990E-07  1.10913389E-07  3.19747978E+00  8.36943729E-02  1.08228625E+00  4.70201829E-07
  4.20000000E-02  9.99999914E-01  1.11632714E-07 -5.66166830E-08  1.61380769E+00 -2.57637396E-09 -9.12710304E-01  3.25110677E-09  9.99999988E-01  5.96019060E-07  1.12610758E-07  3.19747061E+00  8.36943765E-02  1.08228694E+00  4.73289704E-07
  4.30000000E-02  9.99999911E-01  1.12719050E-07 -6.27040451E-08  1.61380767E+00 -3.16733725E-09 -9.12710304E-01  3.31597949E-08  9.99999990E-01  5.94419157E-07  1.14365768E-07  3.19746126E+00  8.36943850E-02  1.08228765E+00  4.76414507E-07
  4.40000000E-02  9.99999908E-01  1.13919651E-07 -6.90644308E-08  1.61380764E+00 -3.74610068E-09 -9.12710305E-01  5.93963210E-08  9.99999993E-01  5.92691339E-07  1.16249034E-07  3.19745174E+00  8.36943992E-02  1.08228838E+00  4.79464380E-07
  4.50000000E-02  9.99999904E-01  1.15312095E-07 -7.55962450E-08  1.61380761E+00 -4.29490258E-09 -9.12710306E-01  8.19686442E-08  9.99999995E-01  5.90928331E-07  1.18242582E-07  3.19744205E+00  8.36944175E-02  1.08228913E+00  4.82599185E-07
  4.60000000E-02  9.99999901E-01  1.16788279E-07 -8.24461584E-08  1.61380758E+00 -4.97680105E-09 -9.12710308E-01  1.01093076E-07  9.99999997E-01  5.89181676E-07  1.20361579E-07  3.19743219E+00  8.36944431E-02  1.08228989E+00  4.85753322E-07
  4.70000000E-02  9.99999897E-01  1.18346507E-07 -8.95333618E-08  1.61380756E+00 -5.41872306E-09 -9.12710309E-01  1.16982917E-07  9.99999999E-01  5.87472764E-07  1.22598223E-07  3.19742218E+00  8.36944722E-02  1.08229067E+00  4.88845525E-07
  4.80000000E-02  9.99999894E-01  1.19842502E-07 -9.68056287E-08  1.61380753E+00 -5.88639931E-09 -9.12710311E-01  1.29677836E-07  1.00000000E+00  5.85832766E-07  1.24938269E-07  3.19741201E+00  8.36945067E-02  1.08229147E+00  4.91818404E-07
  4.90000000E-02  9.99999890E-01  1.21197205E-07 -1.04164518E-07  1.61380751E+00 -6.39380597E-09 -9.12710313E-01  1.39357030E-07  1.00000000E+00  5.84263874E-07  1.27366994E-07  3.19740169E+00  8.36945464E-02  1.08229228E+00  4.94701659E-07
  5.00000000E-02  9.99999887E-01  1.22514568E-07 -1.11465363E-07  1.61380748E+00 -6.83817437E-09 -9.12710316E-01  1.46184201E-07  1.00000001E+00  5.82750766E-07  1.29876390E-07  3.19739122E+00  8.36945947E-02  1.08229311E+00  4.97475411E-07
