# time mean(w) mean(w**2)
  1.00000000E-03  1.00000000E+00 -1.42034360E-08  0.00000000E+00  1.61381521E+00 -6.93889390E-18 -3.22796299E-06  1.04083409E-17  1.00000194E+00  4.00023590E-04  3.76670360E-04  3.35559876E+00  3.61835118E-02  3.61860961E-02  1.04575345E+00
  2.00000000E-03  1.00000001E+00 -1.70459521E-08 -5.42101086E-20  1.61381263E+00 -6.93889390E-18 -8.48447631E-06 -2.77555756E-17  1.00000618E+00  4.54894119E-04  3.43953378E-04  3.29953858E+00  3.42068751E-02  3.42128239E-02  1.68759807E+00
  3.00000000E-03  1.00000002E+00 -8.51234103E-09 -5.42101086E-20  1.61381825E+00 -1.38777878E-17 -1.54425676E-05 -6.93889390E-18  1.00000975E+00  5.85278181E-04  3.20200638E-04  3.25491924E+00  3.33892089E-02  3.33991775E-02  1.89385507E+00
  4.00000000E-03  1.00000003E+00  1.10243777E-08  0.00000000E+00  1.61382248E+00 -2.08166817E-17 -2.37052988E-05  4.16333634E-17  1.00001616E+00  8.19953504E-04  3.66847463E-04  3.21059627E+00  3.29688479E-02  3.29833888E-02  2.04396191E+00
  5.00000000E-03  1.00000005E+00  4.11722343E-08  3.25260652E-19  1.61382564E+00 -2.08166817E-17 -3.28749869E-05 -4.16333634E-17  1.00002945E+00  1.09757744E-03  4.45951343E-04  3.16704800E+00  3.27287307E-02  3.27483134E-02  2.21098053E+00
  6.00000000E-03  1.00000007E+00  8.15200185E-08 -2.16840434E-19  1.61383117E+00 -1.38777878E-17 -4.25916653E-05  2.77555756E-17  1.00005124E+00  1.37007272E-03  5.11964470E-04  3.12744782E+00  3.26244835E-02  3.26494982E-02  2.35329922E+00
  7.00000000E-03  1.00000009E+00  1.31635128E-07  0.00000000E+00  1.61383849E+00  0.00000000E+00 -5.25500976E-05  1.38777878E-17  1.00008255E+00  1.64026114E-03  5.71118985E-04  3.09294953E+00  3.26124466E-02  3.26432059E-02  2.46384390E+00
  8.00000000E-03  1.00000012E+00  1.91084688E-07  6.50521303E-19  1.61384693E+00  6.93889390E-18 -6.25016693E-05  5.55111512E-17  1.00012346E+00  1.90994348E-03  6.30929477E-04  3.06327813E+00  3.26540452E-02  3.26907846E-02  2.55190728E+00
  9.00000000E-03  1.00000015E+00  2.59472753E-07 -4.33680869E-19  1.61385592E+00 -2.77555756E-17 -7.22489988E-05 -2.77555756E-17  1.00017307E+00  2.17863875E-03  6.94434189E-04  3.03796336E+00  3.27111938E-02  3.27540798E-02  2.61868366E+00
  1.00000000E-02  1.00000019E+00  3.36424144E-07  6.50521303E-19  1.61386040E+00 -6.93889390E-18 -7.69935434E-05  1.38777878E-17  1.00023023E+00  2.44781539E-03  7.64962389E-04  3.01652574E+00  3.27547529E-02  3.28015567E-02  2.66726189E+00
  1.10000000E-02  1.00000023E+00  4.17468895E-07 -4.33680869E-19  1.61386461E+00 -6.93889390E-18 -8.16093601E-05  2.77555756E-17  1.00029423E+00  2.71482549E-03  8.43424944E-04  2.99801881E+00  3.27782864E-02  3.28291360E-02  2.70244440E+00
  1.20000000E-02  1.00000028E+00  5.02497773E-07  4.33680869E-19  1.61386863E+00 -1.38777878E-17 -8.60830663E-05  4.16333634E-17  1.00036435E+00  2.97479511E-03  9.24526515E-04  2.98179417E+00  3.27841245E-02  3.28391134E-02  2.72913852E+00
  1.30000000E-02  1.00000033E+00  5.91395731E-07 -4.33680869E-19  1.61387253E+00 -6.93889390E-18 -9.04045856E-05 -2.77555756E-17  1.00043892E+00  3.22485658E-03  1.00261525E-03  2.96702512E+00  3.27743326E-02  3.28335195E-02  2.74914609E+00
  1.40000000E-02  1.00000038E+00  6.84065090E-07  8.67361738E-19  1.61387635E+00 -6.93889390E-18 -9.45698696E-05 -2.77555756E-17  1.00051609E+00  3.46416574E-03  1.07623466E-03  2.95335683E+00  3.27546867E-02  3.28181063E-02  2.76369177E+00
  1.50000000E-02  1.00000044E+00  7.80408168E-07  4.33680869E-19  1.61388014E+00  0.00000000E+00 -9.85787194E-05  0.00000000E+00  1.00059537E+00  3.69376255E-03  1.14953788E-03  2.94049439E+00  3.27318278E-02  3.27994908E-02  2.77370369E+00
  1.60000000E-02  1.00000050E+00  8.80345699E-07 -4.33680869E-19  1.61388395E+00  0.00000000E+00 -1.02434585E-04  2.77555756E-17  1.00067574E+00  3.91183261E-03  1.22054084E-03  2.92823133E+00  3.27127376E-02  3.27846327E-02  2.78006383E+00
  1.70000000E-02  1.00000057E+00  9.83762407E-07 -4.33680869E-19  1.61388780E+00 -2.77555756E-17 -1.06137656E-04  2.77555756E-17  1.00075631E+00  4.12034693E-03  1.28772749E-03  2.91642649E+00  3.26975764E-02  3.27736938E-02  2.78193356E+00
  1.80000000E-02  1.00000064E+00  1.09056168E-06  1.30104261E-18  1.61389167E+00  6.93889390E-18 -1.09676764E-04  2.77555756E-17  1.00083661E+00  4.32244841E-03  1.35276289E-03  2.90522265E+00  3.26853042E-02  3.27656377E-02  2.77651714E+00
  1.90000000E-02  1.00000072E+00  1.20064743E-06  4.33680869E-19  1.61389554E+00  6.93889390E-18 -1.13043031E-04 -2.77555756E-17  1.00091712E+00  4.51700097E-03  1.41368564E-03  2.89479563E+00  3.26745995E-02  3.27591309E-02  2.76091240E+00
  2.00000000E-02  1.00000080E+00  1.31392371E-06 -1.30104261E-18  1.61389939E+00 -6.93889390E-18 -1.16238683E-04  0.00000000E+00  1.00099823E+00  4.70345371E-03  1.47039887E-03  2.88531833E+00  3.26637704E-02  3.27524615E-02  2.73243493E+00
  2.10000000E-02  1.00000089E+00  1.43031361E-06  4.33680869E-19  1.61390323E+00  0.00000000E+00 -1.19266130E-04  0.00000000E+00  1.00107972E+00  4.88300535E-03  1.52283358E-03  2.87694489E+00  3.26511864E-02  3.27439754E-02  2.69099859E+00
  2.20000000E-02  1.00000098E+00  1.54972050E-06 -4.33680869E-19  1.61390705E+00 -1.38777878E-17 -1.22117760E-04  2.77555756E-17  1.00116161E+00  5.05669025E-03  1.56877616E-03  2.86968779E+00  3.26359152E-02  3.27327656E-02  2.63712893E+00
  2.30000000E-02  1.00000108E+00  1.67203555E-06  4.33680869E-19  1.61391085E+00 -1.38777878E-17 -1.24797395E-04  2.77555756E-17  1.00124426E+00  5.22551690E-03  1.60696078E-03  2.86342081E+00  3.26176698E-02  3.27185505E-02  2.57148461E+00
  2.40000000E-02  1.00000118E+00  1.79716400E-06  0.00000000E+00  1.61391461E+00 -6.93889390E-18 -1.27318184E-04  5.55111512E-17  1.00132724E+00  5.39131431E-03  1.63954776E-03  2.85804121E+00  3.25962833E-02  3.27011641E-02  2.49556113E+00
  2.50000000E-02  1.00000128E+00  1.92500774E-06  1.30104261E-18  1.61391833E+00  0.00000000E+00 -1.29685531E-04  5.55111512E-17  1.00140974E+00  5.55322559E-03  1.66739989E-03  2.85349014E+00  3.25721315E-02  3.26809831E-02  2.41230563E+00
  2.60000000E-02  1.00000140E+00  2.05548981E-06  1.73472348E-18  1.61392201E+00  1.38777878E-17 -1.31898847E-04 -2.77555756E-17  1.00149137E+00  5.70866263E-03  1.69082908E-03  2.84962267E+00  3.25457220E-02  3.26585063E-02  2.32474912E+00
  2.70000000E-02  1.00000151E+00  2.18853591E-06  8.67361738E-19  1.61392566E+00  6.93889390E-18 -1.33959189E-04 -5.55111512E-17  1.00157210E+00  5.85604283E-03  1.71138764E-03  2.84624369E+00  3.25178716E-02  3.26345511E-02  2.23523536E+00
  2.80000000E-02  1.00000163E+00  2.32403373E-06  0.00000000E+00  1.61392929E+00  6.93889390E-18 -1.35865190E-04  0.00000000E+00  1.00165223E+00  5.99685866E-03  1.73041699E-03  2.84319276E+00  3.24892177E-02  3.26097675E-02  2.14590538E+00
  2.90000000E-02  1.00000176E+00  2.46192318E-06  8.67361738E-19  1.61393289E+00  6.93889390E-18 -1.37614314E-04  0.00000000E+00  1.00173238E+00  6.13355507E-03  1.74966184E-03  2.84031286E+00  3.24603323E-02  3.25847231E-02  2.05862813E+00
  3.00000000E-02  1.00000189E+00  2.60211410E-06  8.67361738E-19  1.61393647E+00  0.00000000E+00 -1.39218445E-04  8.32667268E-17  1.00181250E+00  6.26723103E-03  1.77023802E-03  2.83750969E+00  3.24316939E-02  3.25598917E-02  1.97497582E+00
  3.10000000E-02  1.00000203E+00  2.74451349E-06  0.00000000E+00  1.61394002E+00  6.93889390E-18 -1.40688119E-04 -2.77555756E-17  1.00189207E+00  6.39808698E-03  1.79250248E-03  2.83475184E+00  3.24037101E-02  3.25356772E-02  1.89570009E+00
  3.20000000E-02  1.00000217E+00  2.88904842E-06  3.46944695E-18  1.61394354E+00  0.00000000E+00 -1.42029045E-04  5.55111512E-17  1.00197056E+00  6.52531683E-03  1.81688613E-03  2.83202689E+00  3.23767662E-02  3.25124552E-02  1.82074755E+00
  3.30000000E-02  1.00000232E+00  3.03561213E-06  3.46944695E-18  1.61394703E+00  0.00000000E+00 -1.43244068E-04  4.16333634E-17  1.00204815E+00  6.65063734E-03  1.84331350E-03  2.82931026E+00  3.23511214E-02  3.24905042E-02  1.74980090E+00
  3.40000000E-02  1.00000247E+00  3.18414379E-06  1.73472348E-18  1.61395050E+00 -6.93889390E-18 -1.44323570E-04  5.55111512E-17  1.00212510E+00  6.77647904E-03  1.87276096E-03  2.82658496E+00  3.23269905E-02  3.24700525E-02  1.68237705E+00
  3.50000000E-02  1.00000263E+00  3.33455632E-06  3.46944695E-18  1.61395393E+00  0.00000000E+00 -1.45262094E-04  4.16333634E-17  1.00220155E+00  6.90395254E-03  1.90510395E-03  2.82384202E+00  3.23044551E-02  3.24511882E-02  1.61807455E+00
  3.60000000E-02  1.00000279E+00  3.48676649E-06  8.67361738E-19  1.61395733E+00 -6.93889390E-18 -1.46061601E-04  6.93889390E-17  1.00227737E+00  7.03246129E-03  1.93985741E-03  2.82109200E+00  3.22834856E-02  3.24338722E-02  1.55695545E+00
  3.70000000E-02  1.00000296E+00  3.64070186E-06  1.73472348E-18  1.61396071E+00 -2.08166817E-17 -1.46728558E-04 -1.11022302E-16  1.00235277E+00  7.15986235E-03  1.97631712E-03  2.81835128E+00  3.22639222E-02  3.24179220E-02  1.49900407E+00
  3.80000000E-02  1.00000313E+00  3.79627909E-06  8.67361738E-19  1.61396405E+00 -1.38777878E-17 -1.47266664E-04 -2.49800181E-16  1.00242747E+00  7.28388824E-03  2.01413177E-03  2.81564224E+00  3.22455599E-02  3.24031164E-02  1.44379842E+00
  3.90000000E-02  1.00000331E+00  3.95342015E-06  8.67361738E-19  1.61396736E+00 -1.38777878E-17 -1.47674414E-04 -3.46944695E-16  1.00250145E+00  7.40305681E-03  2.05300109E-03  2.81296836E+00  3.22281959E-02  3.23892508E-02  1.39091378E+00
  4.00000000E-02  1.00000349E+00  4.11204334E-06  8.67361738E-19  1.61397064E+00 -1.38777878E-17 -1.47944513E-04 -3.46944695E-16  1.00257498E+00  7.51831374E-03  2.09273249E-03  2.81034199E+00  3.22116649E-02  3.23761792E-02  1.33990172E+00
  4.10000000E-02  1.00000368E+00  4.27207253E-06  8.67361738E-19  1.61397389E+00  0.00000000E+00 -1.48081210E-04 -3.05311332E-16  1.00264843E+00  7.63132714E-03  2.13311671E-03  2.80778081E+00  3.21957878E-02  3.23637462E-02  1.29040851E+00
  4.20000000E-02  1.00000388E+00  4.43343209E-06 -1.73472348E-18  1.61397710E+00  0.00000000E+00 -1.48093488E-04 -3.74700271E-16  1.00272223E+00  7.74314654E-03  2.17400622E-03  2.80529942E+00  3.21804219E-02  3.23518265E-02  1.24244356E+00
  4.30000000E-02  1.00000408E+00  4.59605237E-06  1.73472348E-18  1.61398029E+00 -1.38777878E-17 -1.47995114E-04 -3.46944695E-16  1.00279689E+00  7.85373059E-03  2.21520370E-03  2.80290217E+00  3.21653934E-02  3.23402497E-02  1.19626245E+00
  4.40000000E-02  1.00000428E+00  4.75986378E-06 -8.67361738E-19  1.61398345E+00  1.38777878E-17 -1.47796580E-04 -2.77555756E-16  1.00287283E+00  7.96282766E-03  2.25671734E-03  2.80058616E+00  3.21505085E-02  3.23288186E-02  1.15209790E+00
  4.50000000E-02  1.00000450E+00  4.92479595E-06  0.00000000E+00  1.61398658E+00  1.38777878E-17 -1.47498494E-04 -2.35922393E-16  1.00294983E+00  8.06922874E-03  2.29871902E-03  2.79833300E+00  3.21356636E-02  3.23174234E-02  1.11012941E+00
  4.60000000E-02  1.00000471E+00  5.09078540E-06  8.67361738E-19  1.61398969E+00 -1.38777878E-17 -1.47107724E-04 -1.80411242E-16  1.00302770E+00  8.17185759E-03  2.34162212E-03  2.79612006E+00  3.21208823E-02  3.23060912E-02  1.07047138E+00
  4.70000000E-02  1.00000494E+00  5.25777422E-06  8.67361738E-19  1.61399277E+00  6.93889390E-18 -1.46632814E-04 -1.66533454E-16  1.00310666E+00  8.27110588E-03  2.38551614E-03  2.79394178E+00  3.21062880E-02  3.22949611E-02  1.03298660E+00
  4.80000000E-02  1.00000516E+00  5.42569430E-06  1.73472348E-18  1.61399582E+00 -6.93889390E-18 -1.46080642E-04 -1.52655666E-16  1.00318687E+00  8.36708111E-03  2.43020855E-03  2.79180305E+00  3.20920346E-02  3.22842033E-02  9.97372715E-01
  4.90000000E-02  1.00000540E+00  5.59449804E-06  1.73472348E-18  1.61399885E+00  6.93889390E-18 -1.45457885E-04 -5.55111512E-17  1.00326829E+00  8.45944102E-03  2.47519505E-03  2.78971577E+00  3.20782804E-02  3.22739785E-02  9.63331007E-01
  5.00000000E-02  1.00000564E+00  5.76414097E-06  2.60208521E-18  1.61400185E+00  2.08166817E-17 -1.44771663E-04 -5.55111512E-17  1.00335095E+00  8.54723951E-03  2.51980918E-03  2.78769590E+00  3.20650569E-02  3.22643188E-02  9.30571842E-01
