 # time mean(w) mean(w**2)
  3.663705E-04  4.773137E+01  2.814326E-20  3.543312E-04 -3.435189E-21  1.659203E+01 -1.607128E+00 -3.947460E-16 -2.783627E+00  1.732388E+05  2.328594E-11  1.940500E-04  2.275747E-11  5.297144E+02  3.815965E+00  1.526386E+01  1.144789E+01
  7.327295E-04  4.773132E+01 -2.358751E-21  7.823456E-04 -9.952637E-21  1.659202E+01 -1.607128E+00 -3.947460E-16 -2.783627E+00  1.732384E+05  8.546666E-11  9.310476E-04  8.891692E-11  5.297208E+02  3.815966E+00  1.526386E+01  1.144789E+01
  1.099080E-03  4.773127E+01  2.208756E-20  1.212731E-03 -1.068203E-20  1.659201E+01 -1.607128E+00  3.947460E-16 -2.783627E+00  1.732381E+05  1.770709E-10  2.207944E-03  1.958714E-10  5.297273E+02  3.815966E+00  1.526385E+01  1.144790E+01
  1.465424E-03  4.773123E+01  7.150958E-20  1.645483E-03 -1.618774E-20  1.659200E+01 -1.607128E+00  7.894919E-16 -2.783627E+00  1.732377E+05  2.890274E-10  4.014266E-03  3.429624E-10  5.297338E+02  3.815967E+00  1.526385E+01  1.144790E+01
  1.831763E-03  4.773118E+01  1.409016E-19  2.080594E-03 -2.494041E-21  1.659199E+01 -1.607129E+00 -1.973730E-16 -2.783627E+00  1.732372E+05  4.277527E-10  6.339733E-03  5.343519E-10  5.297403E+02  3.815967E+00  1.526385E+01  1.144790E+01
  2.198098E-03  4.773111E+01  2.275107E-19  2.521188E-03 -3.294017E-21  1.659198E+01 -1.607129E+00 -5.921189E-16 -2.783627E+00  1.732365E+05  5.818518E-10  9.160979E-03  7.839617E-10  5.297466E+02  3.815968E+00  1.526385E+01  1.144790E+01
  2.564430E-03  4.773104E+01  3.939762E-19  2.965316E-03  5.505714E-21  1.659197E+01 -1.607129E+00  0.000000E+00 -2.783628E+00  1.732356E+05  7.878690E-10  1.247099E-02  1.122597E-09  5.297529E+02  3.815968E+00  1.526385E+01  1.144790E+01
  2.930759E-03  4.773096E+01  5.180901E-19  3.412389E-03 -3.011673E-21  1.659196E+01 -1.607129E+00 -1.973730E-16 -2.783628E+00  1.732346E+05  1.015174E-09  1.625254E-02  1.605851E-09  5.297591E+02  3.815969E+00  1.526385E+01  1.144790E+01
  3.297086E-03  4.773088E+01 -5.206867E-12  3.862368E-03  2.395066E-17  1.659195E+01 -1.607129E+00  1.973730E-16 -2.783628E+00  1.732335E+05  1.332992E-09  2.044593E-02  2.315585E-09  5.297654E+02  3.815969E+00  1.526385E+01  1.144790E+01
  3.663411E-03  4.773079E+01 -2.168079E-11  4.315177E-03 -6.587838E-16  1.659194E+01 -1.607130E+00 -5.921189E-16 -2.783628E+00  1.732323E+05  1.769416E-09  2.507206E-02  3.378352E-09  5.297719E+02  3.815969E+00  1.526385E+01  1.144789E+01
  4.029735E-03  4.773070E+01 -5.115107E-11  4.770793E-03 -3.039947E-15  1.659194E+01 -1.607130E+00 -3.947460E-16 -2.783628E+00  1.732309E+05  2.399787E-09  3.012196E-02  4.986508E-09  5.297785E+02  3.815969E+00  1.526385E+01  1.144789E+01
  4.396058E-03  4.773060E+01 -9.016874E-11  5.229184E-03 -9.220574E-15  1.659193E+01 -1.607130E+00  0.000000E+00 -2.783628E+00  1.732295E+05  3.305433E-09  3.558368E-02  7.394347E-09  5.297852E+02  3.815970E+00  1.526385E+01  1.144789E+01
  4.762379E-03  4.773050E+01 -1.359870E-10  5.690321E-03 -2.231768E-14  1.659193E+01 -1.607130E+00 -3.947460E-16 -2.783628E+00  1.732280E+05  4.556603E-09  4.144561E-02  1.092551E-08  5.297920E+02  3.815970E+00  1.526384E+01  1.144789E+01
  5.128700E-03  4.773039E+01 -1.864916E-10  6.154174E-03 -4.604181E-14  1.659193E+01 -1.607130E+00  5.921189E-16 -2.783628E+00  1.732263E+05  6.351025E-09  4.769638E-02  1.597640E-08  5.297988E+02  3.815970E+00  1.526384E+01  1.144789E+01
  5.495020E-03  4.773029E+01 -2.394788E-10  6.620714E-03 -8.411382E-14  1.659193E+01 -1.607130E+00  3.947460E-16 -2.783628E+00  1.732246E+05  8.792109E-09  5.432494E-02  2.302032E-08  5.298056E+02  3.815971E+00  1.526384E+01  1.144789E+01
  5.861339E-03  4.773017E+01 -2.932863E-10  7.089913E-03 -1.399668E-13  1.659193E+01 -1.607130E+00  7.894919E-16 -2.783628E+00  1.732228E+05  1.206319E-08  6.132048E-02  3.260496E-08  5.298124E+02  3.815971E+00  1.526384E+01  1.144789E+01
  6.227658E-03  4.773006E+01 -3.466681E-10  7.561741E-03 -2.165200E-13  1.659194E+01 -1.607130E+00  1.973730E-16 -2.783628E+00  1.732209E+05  1.637957E-08  6.867248E-02  4.535230E-08  5.298193E+02  3.815971E+00  1.526384E+01  1.144789E+01
  6.593976E-03  4.772994E+01 -3.981535E-10  8.036169E-03 -3.159883E-13  1.659194E+01 -1.607131E+00  1.184238E-15 -2.783628E+00  1.732189E+05  2.196631E-08  7.637067E-02  6.195645E-08  5.298261E+02  3.815971E+00  1.526384E+01  1.144789E+01
  6.960294E-03  4.772982E+01 -4.479666E-10  8.513170E-03 -4.396384E-13  1.659194E+01 -1.607131E+00  5.921189E-16 -2.783628E+00  1.732169E+05  2.907228E-08  8.440505E-02  8.304720E-08  5.298329E+02  3.815971E+00  1.526384E+01  1.144789E+01
  7.326612E-03  4.772969E+01 -4.964737E-10  8.992715E-03 -5.876862E-13  1.659195E+01 -1.607131E+00  1.578984E-15 -2.783628E+00  1.732147E+05  3.799077E-08  9.276587E-02  1.093400E-07  5.298396E+02  3.815971E+00  1.526384E+01  1.144789E+01
  7.692929E-03  4.772956E+01 -5.441848E-10  9.474777E-03 -7.588320E-13  1.659195E+01 -1.607131E+00  1.578984E-15 -2.783628E+00  1.732124E+05  4.899745E-08  1.014436E-01  1.417311E-07  5.298464E+02  3.815972E+00  1.526384E+01  1.144789E+01
  8.059246E-03  4.772942E+01 -5.914318E-10  9.959327E-03 -9.504906E-13  1.659195E+01 -1.607131E+00  1.776357E-15 -2.783628E+00  1.732101E+05  6.243246E-08  1.104290E-01  1.811579E-07  5.298531E+02  3.815972E+00  1.526384E+01  1.144789E+01
  8.425562E-03  4.772928E+01 -6.597184E-10  1.044634E-02 -1.159209E-12  1.659196E+01 -1.607131E+00  5.048746E-10 -2.783628E+00  1.732076E+05  7.862213E-08  1.197129E-01  2.286090E-07  5.298597E+02  3.815972E+00  1.526383E+01  1.144789E+01
  8.791878E-03  4.772914E+01 -8.076942E-10  1.093578E-02 -1.380556E-12  1.659196E+01 -1.607131E+00  3.982138E-09 -2.783627E+00  1.732051E+05  9.785185E-08  1.292867E-01  2.843452E-07  5.298664E+02  3.815972E+00  1.526383E+01  1.144789E+01
  9.158194E-03  4.772900E+01 -1.080430E-09  1.142763E-02 -1.609628E-12  1.659197E+01 -1.607131E+00  9.204347E-09 -2.783627E+00  1.732025E+05  1.203811E-07  1.391416E-01  3.480483E-07  5.298730E+02  3.815972E+00  1.526383E+01  1.144788E+01
  9.524510E-03  4.772885E+01 -1.158120E-09  1.192187E-02 -1.840765E-12  1.659197E+01 -1.607131E+00  1.437928E-08 -2.783627E+00  1.731998E+05  1.465780E-07  1.492694E-01  4.212010E-07  5.298795E+02  3.815972E+00  1.526383E+01  1.144788E+01
  9.890825E-03  4.772870E+01 -1.440485E-09  1.241845E-02 -2.067790E-12  1.659198E+01 -1.607131E+00  1.928526E-08 -2.783627E+00  1.731970E+05  1.767949E-07  1.596617E-01  5.048537E-07  5.298860E+02  3.815972E+00  1.526383E+01  1.144788E+01
  1.025714E-02  4.772854E+01 -1.903959E-09  1.291736E-02 -2.284277E-12  1.659199E+01 -1.607132E+00  2.393223E-08 -2.783627E+00  1.731941E+05  2.113855E-07  1.703108E-01  5.999538E-07  5.298925E+02  3.815972E+00  1.526383E+01  1.144788E+01
  1.062346E-02  4.772838E+01 -2.539501E-09  1.341858E-02 -2.483556E-12  1.659199E+01 -1.607132E+00  2.836168E-08 -2.783627E+00  1.731911E+05  2.506779E-07  1.812088E-01  7.073965E-07  5.298989E+02  3.815972E+00  1.526383E+01  1.144788E+01
  1.098977E-02  4.772822E+01 -2.950127E-09  1.392207E-02 -2.659172E-12  1.659200E+01 -1.607132E+00  3.538497E-08 -2.783627E+00  1.731881E+05  2.934907E-07  1.923481E-01  8.280236E-07  5.299053E+02  3.815972E+00  1.526383E+01  1.144788E+01
  1.135609E-02  4.772806E+01 -4.114665E-09  1.442780E-02 -2.801001E-12  1.659200E+01 -1.607132E+00  4.238385E-08 -2.783627E+00  1.731850E+05  3.399939E-07  2.037215E-01  9.626638E-07  5.299116E+02  3.815972E+00  1.526383E+01  1.144788E+01
  1.172240E-02  4.772789E+01 -2.969598E-09  1.493577E-02 -2.899558E-12  1.659201E+01 -1.607132E+00  5.013971E-08 -2.783627E+00  1.731818E+05  3.911482E-07  2.153205E-01  1.112931E-06  5.299179E+02  3.815972E+00  1.526382E+01  1.144788E+01
  1.208871E-02  4.772772E+01 -5.087565E-09  1.544593E-02 -2.946629E-12  1.659202E+01 -1.607132E+00  5.623513E-08 -2.783627E+00  1.731785E+05  4.478644E-07  2.271363E-01  1.281309E-06  5.299241E+02  3.815972E+00  1.526382E+01  1.144788E+01
  1.245503E-02  4.772754E+01 -6.551771E-09  1.595826E-02 -2.934897E-12  1.659202E+01 -1.607132E+00  6.215134E-08 -2.783627E+00  1.731751E+05  5.109012E-07  2.391615E-01  1.470310E-06  5.299303E+02  3.815972E+00  1.526382E+01  1.144787E+01
  1.282134E-02  4.772736E+01 -7.802703E-09  1.647274E-02 -2.863101E-12  1.659203E+01 -1.607132E+00  6.864297E-08 -2.783626E+00  1.731716E+05  5.810511E-07  2.513894E-01  1.682391E-06  5.299364E+02  3.815972E+00  1.526382E+01  1.144787E+01
  1.318766E-02  4.772718E+01 -7.500163E-09  1.698933E-02 -2.729007E-12  1.659204E+01 -1.607132E+00  7.642991E-08 -2.783626E+00  1.731681E+05  6.591239E-07  2.638132E-01  1.919948E-06  5.299424E+02  3.815972E+00  1.526382E+01  1.144787E+01
  1.355397E-02  4.772700E+01 -1.133133E-08  1.750803E-02 -2.535383E-12  1.659204E+01 -1.607132E+00  8.330730E-08 -2.783626E+00  1.731645E+05  7.459672E-07  2.764264E-01  2.185395E-06  5.299484E+02  3.815972E+00  1.526382E+01  1.144787E+01
  1.392028E-02  4.772681E+01 -9.874049E-09  1.802879E-02 -2.283063E-12  1.659205E+01 -1.607132E+00  9.039900E-08 -2.783626E+00  1.731608E+05  8.424515E-07  2.892226E-01  2.481347E-06  5.299544E+02  3.815972E+00  1.526382E+01  1.144787E+01
  1.428660E-02  4.772662E+01 -1.721815E-08  1.855160E-02 -1.978716E-12  1.659206E+01 -1.607132E+00  9.676955E-08 -2.783626E+00  1.731570E+05  9.494828E-07  3.021956E-01  2.810552E-06  5.299602E+02  3.815972E+00  1.526382E+01  1.144787E+01
  1.465291E-02  4.772643E+01 -1.734002E-08  1.907642E-02 -1.625029E-12  1.659207E+01 -1.607132E+00  1.037579E-07 -2.783626E+00  1.731531E+05  1.068006E-06  3.153392E-01  3.175848E-06  5.299661E+02  3.815972E+00  1.526381E+01  1.144787E+01
  1.501923E-02  4.772623E+01 -2.336939E-08  1.960325E-02 -1.232054E-12  1.659207E+01 -1.607132E+00  1.104035E-07 -2.783626E+00  1.731492E+05  1.199061E-06  3.286476E-01  3.580275E-06  5.299718E+02  3.815972E+00  1.526381E+01  1.144787E+01
  1.538554E-02  4.772603E+01 -1.988893E-08  2.013204E-02 -8.057752E-13  1.659208E+01 -1.607132E+00  1.154414E-07 -2.783626E+00  1.731452E+05  1.343686E-06  3.421150E-01  4.026995E-06  5.299775E+02  3.815972E+00  1.526381E+01  1.144786E+01
  1.575185E-02  4.772583E+01 -2.283784E-08  2.066278E-02 -3.555181E-13  1.659209E+01 -1.607133E+00  1.214917E-07 -2.783626E+00  1.731411E+05  1.503046E-06  3.557357E-01  4.519339E-06  5.299832E+02  3.815972E+00  1.526381E+01  1.144786E+01
  1.611817E-02  4.772563E+01 -2.673408E-08  2.119544E-02  1.117629E-13  1.659209E+01 -1.607133E+00  1.278794E-07 -2.783625E+00  1.731369E+05  1.678288E-06  3.695043E-01  5.060214E-06  5.299887E+02  3.815972E+00  1.526381E+01  1.144786E+01
  1.648448E-02  4.772542E+01 -2.984393E-08  2.173000E-02  5.900564E-13  1.659210E+01 -1.607133E+00  1.331936E-07 -2.783625E+00  1.731327E+05  1.870726E-06  3.834155E-01  5.646725E-06  5.299943E+02  3.815971E+00  1.526381E+01  1.144786E+01
  1.685079E-02  4.772521E+01 -3.176516E-08  2.226643E-02  1.072318E-12  1.659211E+01 -1.607133E+00  1.386224E-07 -2.783625E+00  1.731284E+05  2.081387E-06  3.974641E-01  6.283152E-06  5.299997E+02  3.815971E+00  1.526381E+01  1.144786E+01
  1.721711E-02  4.772500E+01 -3.302902E-08  2.280472E-02  1.553517E-12  1.659211E+01 -1.607133E+00  1.430844E-07 -2.783625E+00  1.731240E+05  2.308987E-06  4.116472E-01  6.967934E-06  5.300051E+02  3.815971E+00  1.526380E+01  1.144786E+01
  1.758342E-02  4.772478E+01 -3.788283E-08  2.334483E-02  2.027366E-12  1.659212E+01 -1.607133E+00  1.498964E-07 -2.783625E+00  1.731195E+05  2.552438E-06  4.259631E-01  7.698918E-06  5.300105E+02  3.815971E+00  1.526380E+01  1.144785E+01
  1.794973E-02  4.772457E+01 -4.404749E-08  2.388675E-02  2.488181E-12  1.659213E+01 -1.607133E+00  1.573074E-07 -2.783625E+00  1.731150E+05  2.812199E-06  4.404076E-01  8.478451E-06  5.300158E+02  3.815971E+00  1.526380E+01  1.144785E+01
  1.831604E-02  4.772435E+01 -4.535041E-08  2.443046E-02  2.931716E-12  1.659214E+01 -1.607133E+00  1.617005E-07 -2.783625E+00  1.731104E+05  3.088775E-06  4.549763E-01  9.308558E-06  5.300211E+02  3.815971E+00  1.526380E+01  1.144785E+01
  1.868236E-02  4.772412E+01 -4.728224E-08  2.497593E-02  3.351034E-12  1.659214E+01 -1.607133E+00  1.672378E-07 -2.783624E+00  1.731057E+05  3.382696E-06  4.696649E-01  1.019140E-05  5.300263E+02  3.815971E+00  1.526380E+01  1.144785E+01
  1.904867E-02  4.772390E+01 -5.240344E-08  2.552314E-02  3.741551E-12  1.659215E+01 -1.607133E+00  1.740266E-07 -2.783624E+00  1.731009E+05  3.694498E-06  4.844694E-01  1.112907E-05  5.300315E+02  3.815971E+00  1.526380E+01  1.144785E+01
  1.941498E-02  4.772367E+01 -5.274639E-08  2.607208E-02  4.098645E-12  1.659216E+01 -1.607133E+00  1.794430E-07 -2.783624E+00  1.730961E+05  4.024817E-06  4.993857E-01  1.212377E-05  5.300367E+02  3.815970E+00  1.526379E+01  1.144785E+01
  1.978130E-02  4.772344E+01 -6.138036E-08  2.662271E-02  4.416060E-12  1.659217E+01 -1.607133E+00  1.856615E-07 -2.783624E+00  1.730912E+05  4.374250E-06  5.144099E-01  1.317783E-05  5.300418E+02  3.815970E+00  1.526379E+01  1.144785E+01
  2.014761E-02  4.772321E+01 -6.443283E-08  2.717503E-02  4.692862E-12  1.659218E+01 -1.607133E+00  1.909665E-07 -2.783624E+00  1.730862E+05  4.743445E-06  5.295382E-01  1.429372E-05  5.300468E+02  3.815970E+00  1.526379E+01  1.144784E+01
  2.051392E-02  4.772297E+01 -6.630193E-08  2.772900E-02  4.924867E-12  1.659219E+01 -1.607133E+00  1.968806E-07 -2.783624E+00  1.730812E+05  5.133084E-06  5.447669E-01  1.547369E-05  5.300518E+02  3.815970E+00  1.526379E+01  1.144784E+01
  2.088023E-02  4.772273E+01 -7.182939E-08  2.828462E-02  5.108381E-12  1.659219E+01 -1.607133E+00  2.009225E-07 -2.783624E+00  1.730761E+05  5.543922E-06  5.600925E-01  1.672020E-05  5.300567E+02  3.815970E+00  1.526379E+01  1.144784E+01
  2.124655E-02  4.772250E+01 -7.589989E-08  2.884185E-02  5.242796E-12  1.659220E+01 -1.607133E+00  2.063717E-07 -2.783623E+00  1.730709E+05  5.976709E-06  5.755114E-01  1.803550E-05  5.300616E+02  3.815970E+00  1.526379E+01  1.144784E+01
  2.161286E-02  4.772225E+01 -7.856491E-08  2.940068E-02  5.323008E-12  1.659221E+01 -1.607133E+00  2.114850E-07 -2.783623E+00  1.730657E+05  6.432222E-06  5.910203E-01  1.942159E-05  5.300664E+02  3.815969E+00  1.526379E+01  1.144784E+01
  2.197917E-02  4.772201E+01 -8.459469E-08  2.996109E-02  5.348125E-12  1.659222E+01 -1.607133E+00  2.176560E-07 -2.783623E+00  1.730604E+05  6.911317E-06  6.066159E-01  2.088123E-05  5.300711E+02  3.815969E+00  1.526378E+01  1.144784E+01
  2.234548E-02  4.772176E+01 -8.970960E-08  3.052306E-02  5.317018E-12  1.659222E+01 -1.607133E+00  2.234351E-07 -2.783623E+00  1.730550E+05  7.414864E-06  6.222949E-01  2.241633E-05  5.300758E+02  3.815969E+00  1.526378E+01  1.144783E+01
  2.271180E-02  4.772151E+01 -9.138015E-08  3.108657E-02  5.228497E-12  1.659223E+01 -1.607133E+00  2.271186E-07 -2.783623E+00  1.730495E+05  7.943672E-06  6.380543E-01  2.402941E-05  5.300804E+02  3.815969E+00  1.526378E+01  1.144783E+01
  2.307811E-02  4.772126E+01 -9.477850E-08  3.165160E-02  5.082766E-12  1.659224E+01 -1.607133E+00  2.342679E-07 -2.783623E+00  1.730440E+05  8.498559E-06  6.538910E-01  2.572282E-05  5.300850E+02  3.815969E+00  1.526378E+01  1.144783E+01
  2.344442E-02  4.772101E+01 -1.009617E-07  3.221814E-02  4.878332E-12  1.659225E+01 -1.607133E+00  2.378968E-07 -2.783622E+00  1.730384E+05  9.080400E-06  6.698022E-01  2.749884E-05  5.300895E+02  3.815968E+00  1.526378E+01  1.144783E+01
  2.381073E-02  4.772076E+01 -1.051986E-07  3.278615E-02  4.616071E-12  1.659225E+01 -1.607133E+00  2.430452E-07 -2.783622E+00  1.730328E+05  9.689991E-06  6.857851E-01  2.936025E-05  5.300939E+02  3.815968E+00  1.526378E+01  1.144783E+01
  2.417705E-02  4.772050E+01 -1.074306E-07  3.335563E-02  4.295996E-12  1.659226E+01 -1.607133E+00  2.468810E-07 -2.783622E+00  1.730271E+05  1.032835E-05  7.018369E-01  3.130940E-05  5.300983E+02  3.815968E+00  1.526377E+01  1.144782E+01
  2.454336E-02  4.772024E+01 -1.133615E-07  3.392656E-02  3.917372E-12  1.659227E+01 -1.607133E+00  2.523900E-07 -2.783622E+00  1.730213E+05  1.099645E-05  7.179548E-01  3.334934E-05  5.301026E+02  3.815968E+00  1.526377E+01  1.144782E+01
  2.490967E-02  4.771998E+01 -1.150721E-07  3.449891E-02  3.482934E-12  1.659228E+01 -1.607133E+00  2.588808E-07 -2.783622E+00  1.730154E+05  1.169543E-05  7.341364E-01  3.548240E-05  5.301068E+02  3.815967E+00  1.526377E+01  1.144782E+01
  2.527599E-02  4.771972E+01 -1.249578E-07  3.507267E-02  2.990256E-12  1.659228E+01 -1.607133E+00  2.624642E-07 -2.783622E+00  1.730095E+05  1.242634E-05  7.503789E-01  3.771151E-05  5.301110E+02  3.815967E+00  1.526377E+01  1.144782E+01
  2.564230E-02  4.771945E+01 -1.249815E-07  3.564783E-02  2.443075E-12  1.659229E+01 -1.607133E+00  2.672834E-07 -2.783621E+00  1.730036E+05  1.319031E-05  7.666800E-01  4.003928E-05  5.301151E+02  3.815967E+00  1.526377E+01  1.144782E+01
  2.600861E-02  4.771919E+01 -1.290057E-07  3.622435E-02  1.841977E-12  1.659230E+01 -1.607133E+00  2.719096E-07 -2.783621E+00  1.729975E+05  1.398814E-05  7.830370E-01  4.246895E-05  5.301192E+02  3.815967E+00  1.526376E+01  1.144782E+01
  2.637492E-02  4.771892E+01 -1.296192E-07  3.680223E-02  1.189781E-12  1.659230E+01 -1.607133E+00  2.774172E-07 -2.783621E+00  1.729914E+05  1.482100E-05  7.994476E-01  4.500357E-05  5.301232E+02  3.815966E+00  1.526376E+01  1.144781E+01
  2.674124E-02  4.771865E+01 -1.358892E-07  3.738145E-02  4.854222E-13  1.659231E+01 -1.607134E+00  2.828029E-07 -2.783621E+00  1.729853E+05  1.569121E-05  8.159094E-01  4.765074E-05  5.301271E+02  3.815966E+00  1.526376E+01  1.144781E+01
  2.710755E-02  4.771837E+01 -1.443298E-07  3.796198E-02 -2.681320E-13  1.659232E+01 -1.607134E+00  2.852183E-07 -2.783621E+00  1.729790E+05  1.660144E-05  8.324202E-01  5.041865E-05  5.301310E+02  3.815966E+00  1.526376E+01  1.144781E+01
  2.747386E-02  4.771810E+01 -1.461455E-07  3.854382E-02 -1.068896E-12  1.659232E+01 -1.607134E+00  2.908729E-07 -2.783621E+00  1.729728E+05  1.755303E-05  8.489777E-01  5.331153E-05  5.301348E+02  3.815966E+00  1.526376E+01  1.144781E+01
  2.784017E-02  4.771782E+01 -1.477183E-07  3.912694E-02 -1.914606E-12  1.659233E+01 -1.607134E+00  2.953379E-07 -2.783620E+00  1.729664E+05  1.854722E-05  8.655799E-01  5.633356E-05  5.301385E+02  3.815965E+00  1.526376E+01  1.144781E+01
  2.820648E-02  4.771755E+01 -1.510307E-07  3.971133E-02 -2.804951E-12  1.659233E+01 -1.607134E+00  3.007181E-07 -2.783620E+00  1.729600E+05  1.958537E-05  8.822249E-01  5.948875E-05  5.301422E+02  3.815965E+00  1.526375E+01  1.144780E+01
  2.857278E-02  4.771727E+01 -1.577730E-07  4.029697E-02 -3.737770E-12  1.659234E+01 -1.607134E+00  3.039674E-07 -2.783620E+00  1.729535E+05  2.066880E-05  8.989106E-01  6.278127E-05  5.301458E+02  3.815965E+00  1.526375E+01  1.144780E+01
  2.893909E-02  4.771699E+01 -1.619210E-07  4.088385E-02 -4.710925E-12  1.659235E+01 -1.607134E+00  3.103558E-07 -2.783620E+00  1.729470E+05  2.179881E-05  9.156353E-01  6.621564E-05  5.301493E+02  3.815964E+00  1.526375E+01  1.144780E+01
  2.930540E-02  4.771670E+01 -1.640322E-07  4.147194E-02 -5.722375E-12  1.659235E+01 -1.607134E+00  3.144488E-07 -2.783620E+00  1.729404E+05  2.297681E-05  9.323971E-01  6.979634E-05  5.301528E+02  3.815964E+00  1.526375E+01  1.144780E+01
  2.967171E-02  4.771642E+01 -1.701109E-07  4.206124E-02 -6.771841E-12  1.659236E+01 -1.607134E+00  3.197818E-07 -2.783620E+00  1.729338E+05  2.420420E-05  9.491942E-01  7.352741E-05  5.301562E+02  3.815964E+00  1.526375E+01  1.144780E+01
  3.003802E-02  4.771613E+01 -1.704792E-07  4.265172E-02 -7.855045E-12  1.659236E+01 -1.607134E+00  3.210330E-07 -2.783619E+00  1.729271E+05  2.548236E-05  9.660251E-01  7.741301E-05  5.301596E+02  3.815964E+00  1.526374E+01  1.144779E+01
  3.040432E-02  4.771584E+01 -1.755273E-07  4.324337E-02 -8.971956E-12  1.659237E+01 -1.607134E+00  3.278668E-07 -2.783619E+00  1.729203E+05  2.681269E-05  9.828880E-01  8.145731E-05  5.301629E+02  3.815963E+00  1.526374E+01  1.144779E+01
