 # time mean(w) mean(w**2)
  1.00000000E-03  2.81054687E-01  0.00000000E+00 -1.87545371E-05  1.51890473E+00  2.07648313E-01  1.49469594E-09  4.35007750E-08  2.31651264E+00
  2.00000000E-03  2.81054647E-01 -4.23516474E-22 -3.70624694E-05  1.51890468E+00  2.06407669E-01  5.21178681E-09  1.65005548E-07  2.31650736E+00
  3.00000000E-03  2.81054354E-01  2.94343949E-19 -5.45874754E-05  1.51890413E+00  2.05377604E-01  1.04946515E-08  3.50811921E-07  2.31650103E+00
  4.00000000E-03  2.81053957E-01  1.94224655E-18 -7.16128386E-05  1.51890338E+00  2.04514003E-01  1.69283837E-08  5.87692184E-07  2.31649434E+00
  5.00000000E-03  2.81053465E-01  7.04731412E-18 -8.81666721E-05  1.51890246E+00  2.03783477E-01  2.42465841E-08  8.66468543E-07  2.31648739E+00
  6.00000000E-03  2.81052883E-01  1.88100607E-17 -1.04247568E-04  1.51890137E+00  2.03160403E-01  3.21682795E-08  1.18138829E-06  2.31648021E+00
  7.00000000E-03  2.81052218E-01  4.12962443E-17 -1.19859418E-04  1.51890012E+00  2.02624997E-01  4.05092482E-08  1.52718712E-06  2.31647282E+00
  8.00000000E-03  2.81051468E-01  7.90832311E-17 -1.34942656E-04  1.51889857E+00  2.02161506E-01  4.87664553E-08  1.89903629E-06  2.31646468E+00
  9.00000000E-03  2.81050620E-01  1.36769563E-16 -1.49280185E-04  1.51889617E+00  2.01756609E-01  5.70771312E-08  2.29283156E-06  2.31645407E+00
  1.00000000E-02  2.81049697E-01  2.18477749E-16 -1.63100237E-04  1.51889344E+00  2.01397808E-01  6.51976835E-08  2.70545016E-06  2.31644258E+00
  1.10000000E-02  2.81048708E-01  3.27500207E-16 -1.76646358E-04  1.51889051E+00  2.01076959E-01  7.31142948E-08  3.13436297E-06  2.31643066E+00
  1.20000000E-02  2.81047657E-01  4.66108678E-16 -1.90445281E-04  1.51888739E+00  2.00787344E-01  8.08234677E-08  3.57811805E-06  2.31641821E+00
  1.30000000E-02  2.81046548E-01  6.31898437E-16 -2.03108827E-04  1.51888404E+00  2.00524404E-01  8.84144389E-08  4.03271302E-06  2.31640525E+00
  1.40000000E-02  2.81045387E-01  8.18652261E-16 -2.15354320E-04  1.51888055E+00  2.00284575E-01  9.59449297E-08  4.49776592E-06  2.31639202E+00
  1.50000000E-02  2.81044177E-01  1.01627013E-15 -2.27886532E-04  1.51887692E+00  2.00064855E-01  1.03410619E-07  4.97319139E-06  2.31637837E+00
  1.60000000E-02  2.81042921E-01  1.21319513E-15 -2.40006092E-04  1.51887310E+00  1.99862720E-01  1.10823942E-07  5.45666809E-06  2.31636425E+00
  1.70000000E-02  2.81041620E-01  1.39602888E-15 -2.51025989E-04  1.51886909E+00  1.99675963E-01  1.18179403E-07  5.94611350E-06  2.31634968E+00
  1.80000000E-02  2.81040282E-01  1.54999406E-15 -2.62362635E-04  1.51886499E+00  1.99502507E-01  1.25585669E-07  6.44340347E-06  2.31633484E+00
  1.90000000E-02  2.81038906E-01  1.65935618E-15 -2.73312197E-04  1.51886072E+00  1.99340610E-01  1.33174113E-07  6.94467701E-06  2.31631956E+00
  2.00000000E-02  2.81037495E-01  1.70721523E-15 -2.83884485E-04  1.51885630E+00  1.99188788E-01  1.40781010E-07  7.44624811E-06  2.31630390E+00
  2.10000000E-02  2.81036053E-01  1.65648812E-15 -2.94100632E-04  1.51885175E+00  1.99045613E-01  1.48593789E-07  7.94783710E-06  2.31628792E+00
  2.20000000E-02  2.81034581E-01  1.46139272E-15 -3.03970336E-04  1.51884709E+00  1.98909682E-01  1.56680802E-07  8.44969554E-06  2.31627166E+00
  2.30000000E-02  2.81033083E-01  1.07919451E-15 -3.12826690E-04  1.51884234E+00  1.98779658E-01  1.65100805E-07  8.95067463E-06  2.31625525E+00
  2.40000000E-02  2.81031565E-01  4.69022472E-16 -3.22265390E-04  1.51883760E+00  1.98654504E-01  1.73869244E-07  9.45653610E-06  2.31623882E+00
  2.50000000E-02  2.81030025E-01 -4.07277158E-16 -3.30557391E-04  1.51883281E+00  1.98533659E-01  1.83060562E-07  9.96260146E-06  2.31622244E+00
  2.60000000E-02  2.81028466E-01 -1.61683682E-15 -3.39429291E-04  1.51882801E+00  1.98416783E-01  1.92650191E-07  1.04731196E-05  2.31620599E+00
  2.70000000E-02  2.81026890E-01 -3.22861854E-15 -3.47156051E-04  1.51882319E+00  1.98303548E-01  2.02678428E-07  1.09837220E-05  2.31618960E+00
  2.80000000E-02  2.81025296E-01 -5.29718820E-15 -3.55461272E-04  1.51881835E+00  1.98193688E-01  2.13210579E-07  1.14987021E-05  2.31617316E+00
  2.90000000E-02  2.81023685E-01 -7.86786204E-15 -3.63282875E-04  1.51881345E+00  1.98086884E-01  2.24366256E-07  1.20140400E-05  2.31615655E+00
  3.00000000E-02  2.81022059E-01 -1.09755514E-14 -3.70818053E-04  1.51880852E+00  1.97982862E-01  2.36140281E-07  1.25303020E-05  2.31613992E+00
  3.10000000E-02  2.81020416E-01 -1.46278490E-14 -3.77369763E-04  1.51880355E+00  1.97881385E-01  2.48560388E-07  1.30457640E-05  2.31612325E+00
  3.20000000E-02  2.81018761E-01 -1.88020613E-14 -3.84503299E-04  1.51879858E+00  1.97782232E-01  2.61746464E-07  1.35644468E-05  2.31610655E+00
  3.30000000E-02  2.81017093E-01 -2.34535800E-14 -3.91188542E-04  1.51879360E+00  1.97685214E-01  2.75701874E-07  1.40838838E-05  2.31608985E+00
  3.40000000E-02  2.81015411E-01 -2.85376920E-14 -3.96890751E-04  1.51878857E+00  1.97590112E-01  2.90520637E-07  1.46028438E-05  2.31607313E+00
  3.50000000E-02  2.81013717E-01 -3.40192149E-14 -4.03180223E-04  1.51878355E+00  1.97496817E-01  3.06278865E-07  1.51252882E-05  2.31605636E+00
  3.60000000E-02  2.81012010E-01 -3.98703694E-14 -4.09028030E-04  1.51877851E+00  1.97405262E-01  3.23016349E-07  1.56482557E-05  2.31603955E+00
  3.70000000E-02  2.81010292E-01 -4.60695935E-14 -4.14597844E-04  1.51877344E+00  1.97315387E-01  3.40790652E-07  1.61724949E-05  2.31602272E+00
  3.80000000E-02  2.81008560E-01 -5.26016879E-14 -4.19887923E-04  1.51876834E+00  1.97227138E-01  3.59647547E-07  1.66974212E-05  2.31600578E+00
  3.90000000E-02  2.81006816E-01 -5.94553771E-14 -4.24207331E-04  1.51876320E+00  1.97140454E-01  3.79784933E-07  1.72207535E-05  2.31598883E+00
  4.00000000E-02  2.81005063E-01 -6.66229563E-14 -4.29145152E-04  1.51875809E+00  1.97055235E-01  4.01074742E-07  1.77464622E-05  2.31597187E+00
  4.10000000E-02  2.81003297E-01 -7.41003125E-14 -4.33648335E-04  1.51875294E+00  1.96971395E-01  4.23620280E-07  1.82717483E-05  2.31595485E+00
  4.20000000E-02  2.81001518E-01 -8.18858666E-14 -4.37894428E-04  1.51874776E+00  1.96888873E-01  4.47483669E-07  1.87968059E-05  2.31593775E+00
  4.30000000E-02  2.80999729E-01 -8.99807369E-14 -4.41885892E-04  1.51874256E+00  1.96807622E-01  4.72692793E-07  1.93214890E-05  2.31592065E+00
  4.40000000E-02  2.80997927E-01 -9.83893820E-14 -4.45623200E-04  1.51873733E+00  1.96727602E-01  4.99289371E-07  1.98450041E-05  2.31590345E+00
  4.50000000E-02  2.80996112E-01 -1.07102803E-13 -4.49113162E-04  1.51873207E+00  1.96648792E-01  5.27199462E-07  2.03671194E-05  2.31588616E+00
  4.60000000E-02  2.80994285E-01 -1.16061742E-13 -4.52363063E-04  1.51872677E+00  1.96571161E-01  5.56562633E-07  2.08870522E-05  2.31586878E+00
  4.70000000E-02  2.80992446E-01 -1.25306070E-13 -4.55380887E-04  1.51872144E+00  1.96494662E-01  5.87502928E-07  2.14044255E-05  2.31585131E+00
  4.80000000E-02  2.80990594E-01 -1.34876119E-13 -4.58183092E-04  1.51871608E+00  1.96419246E-01  6.19968694E-07  2.19186607E-05  2.31583378E+00
  4.90000000E-02  2.80988730E-01 -1.44851599E-13 -4.60777148E-04  1.51871069E+00  1.96344879E-01  6.53933007E-07  2.24300764E-05  2.31581618E+00
  5.00000000E-02  2.80986854E-01 -1.55331382E-13 -4.63170938E-04  1.51870528E+00  1.96271537E-01  6.89537195E-07  2.29385533E-05  2.31579851E+00
