 # time mean(w) mean(w**2)
  1.00000000E-03  2.81054688E-01  1.05879118E-22 -1.87540010E-05  1.51890473E+00  2.07647708E-01  1.49446594E-09  4.34999423E-08  2.31651264E+00
  2.00000000E-03  2.81054648E-01  1.88464831E-20 -3.70629782E-05  1.51890468E+00  2.06405934E-01  5.21253879E-09  1.64981168E-07  2.31650736E+00
  3.00000000E-03  2.81054355E-01  3.85823507E-19 -5.45884039E-05  1.51890413E+00  2.05374397E-01  1.04940331E-08  3.50720019E-07  2.31650102E+00
  4.00000000E-03  2.81053957E-01  2.20779138E-18 -7.16185517E-05  1.51890338E+00  2.04509293E-01  1.69236978E-08  5.87412402E-07  2.31649432E+00
  5.00000000E-03  2.81053464E-01  7.64828400E-18 -8.81725861E-05  1.51890246E+00  2.03777352E-01  2.42353047E-08  8.66050012E-07  2.31648737E+00
  6.00000000E-03  2.81052881E-01  1.99628725E-17 -1.04253741E-04  1.51890136E+00  2.03153035E-01  3.21504862E-08  1.18076085E-06  2.31648018E+00
  7.00000000E-03  2.81052214E-01  4.32910069E-17 -1.19865963E-04  1.51890011E+00  2.02616566E-01  4.04790094E-08  1.52627711E-06  2.31647277E+00
  8.00000000E-03  2.81051462E-01  8.22579106E-17 -1.34945502E-04  1.51889855E+00  2.02152196E-01  4.87282689E-08  1.89778031E-06  2.31646461E+00
  9.00000000E-03  2.81050612E-01  1.41514642E-16 -1.49289738E-04  1.51889616E+00  2.01746533E-01  5.70301228E-08  2.29115049E-06  2.31645400E+00
  1.00000000E-02  2.81049685E-01  2.25229449E-16 -1.63110592E-04  1.51889342E+00  2.01387074E-01  6.51436664E-08  2.70328513E-06  2.31644249E+00
  1.10000000E-02  2.81048693E-01  3.36749807E-16 -1.77006147E-04  1.51889049E+00  2.01065666E-01  7.30508613E-08  3.13207487E-06  2.31643051E+00
  1.20000000E-02  2.81047639E-01  4.78346610E-16 -1.90111062E-04  1.51888736E+00  2.00775572E-01  8.07483792E-08  3.57411146E-06  2.31641812E+00
  1.30000000E-02  2.81046527E-01  6.48789968E-16 -2.03134343E-04  1.51888405E+00  2.00512244E-01  8.83294376E-08  4.02851038E-06  2.31640527E+00
  1.40000000E-02  2.81045361E-01  8.39987327E-16 -2.15732012E-04  1.51888055E+00  2.00272103E-01  9.58538912E-08  4.49332720E-06  2.31639197E+00
  1.50000000E-02  2.81044145E-01  1.04178784E-15 -2.27914639E-04  1.51887688E+00  2.00052136E-01  1.03313388E-07  4.96726694E-06  2.31637824E+00
  1.60000000E-02  2.81042883E-01  1.24228732E-15 -2.39692795E-04  1.51887305E+00  1.99849807E-01  1.10706906E-07  5.44910730E-06  2.31636412E+00
  1.70000000E-02  2.81041578E-01  1.42760966E-15 -2.51071046E-04  1.51886905E+00  1.99662885E-01  1.18077372E-07  5.93825993E-06  2.31634957E+00
  1.80000000E-02  2.81040233E-01  1.58249810E-15 -2.62405984E-04  1.51886491E+00  1.99489284E-01  1.25479027E-07  6.43450964E-06  2.31633459E+00
  1.90000000E-02  2.81038850E-01  1.69093695E-15 -2.73015008E-04  1.51886062E+00  1.99327241E-01  1.33053522E-07  6.93391238E-06  2.31631931E+00
  2.00000000E-02  2.81037434E-01  1.73383917E-15 -2.83775717E-04  1.51885622E+00  1.99175274E-01  1.40679737E-07  7.43479940E-06  2.31630367E+00
  2.10000000E-02  2.81035984E-01  1.67177538E-15 -2.94165115E-04  1.51885165E+00  1.99031891E-01  1.48515110E-07  7.93563063E-06  2.31628761E+00
  2.20000000E-02  2.81034507E-01  1.45828919E-15 -3.03713966E-04  1.51884701E+00  1.98895680E-01  1.56600671E-07  8.43532633E-06  2.31627145E+00
  2.30000000E-02  2.81033004E-01  1.04720377E-15 -3.13123323E-04  1.51884229E+00  1.98765265E-01  1.65022818E-07  8.93673037E-06  2.31625511E+00
  2.40000000E-02  2.81031478E-01  3.93568777E-16 -3.22233884E-04  1.51883753E+00  1.98639685E-01  1.73800862E-07  9.44076492E-06  2.31623868E+00
  2.50000000E-02  2.81029930E-01 -5.50330858E-16 -3.30875517E-04  1.51883272E+00  1.98518419E-01  1.82993023E-07  9.94684264E-06  2.31622218E+00
  2.60000000E-02  2.81028363E-01 -1.85561202E-15 -3.39403248E-04  1.51882789E+00  1.98401126E-01  1.92585278E-07  1.04558039E-05  2.31620569E+00
  2.70000000E-02  2.81026777E-01 -3.59246663E-15 -3.47637741E-04  1.51882303E+00  1.98287481E-01  2.02614934E-07  1.09669809E-05  2.31618913E+00
  2.80000000E-02  2.81025174E-01 -5.82030558E-15 -3.55579691E-04  1.51881813E+00  1.98177197E-01  2.13118795E-07  1.14800014E-05  2.31617252E+00
  2.90000000E-02  2.81023554E-01 -8.59009316E-15 -3.63229767E-04  1.51881320E+00  1.98069946E-01  2.24273324E-07  1.19942903E-05  2.31615586E+00
  3.00000000E-02  2.81021919E-01 -1.19427377E-14 -3.70588721E-04  1.51880824E+00  1.97965452E-01  2.36044669E-07  1.25094143E-05  2.31613916E+00
  3.10000000E-02  2.81020268E-01 -1.58945089E-14 -3.77833998E-04  1.51880324E+00  1.97863504E-01  2.48462924E-07  1.30257767E-05  2.31612233E+00
  3.20000000E-02  2.81018603E-01 -2.04140666E-14 -3.84461249E-04  1.51879823E+00  1.97763874E-01  2.61647901E-07  1.35423322E-05  2.31610555E+00
  3.30000000E-02  2.81016926E-01 -2.54487593E-14 -3.90985303E-04  1.51879323E+00  1.97666352E-01  2.75600366E-07  1.40607482E-05  2.31608883E+00
  3.40000000E-02  2.81015235E-01 -3.09527794E-14 -3.97395804E-04  1.51878818E+00  1.97570731E-01  2.90414909E-07  1.45807751E-05  2.31607197E+00
  3.50000000E-02  2.81013531E-01 -3.68899247E-14 -4.03353785E-04  1.51878313E+00  1.97476927E-01  3.06166596E-07  1.51017626E-05  2.31605514E+00
  3.60000000E-02  2.81011814E-01 -4.32315926E-14 -4.09202097E-04  1.51877803E+00  1.97384874E-01  3.22896593E-07  1.56240248E-05  2.31603818E+00
  3.70000000E-02  2.81010086E-01 -4.99560178E-14 -4.14602835E-04  1.51877293E+00  1.97294513E-01  3.40691852E-07  1.61472294E-05  2.31602124E+00
  3.80000000E-02  2.81008344E-01 -5.70481433E-14 -4.19899505E-04  1.51876779E+00  1.97205788E-01  3.59584585E-07  1.66714513E-05  2.31600418E+00
  3.90000000E-02  2.81006592E-01 -6.44974864E-14 -4.24754828E-04  1.51876264E+00  1.97118636E-01  3.79682591E-07  1.71956956E-05  2.31598715E+00
  4.00000000E-02  2.81004827E-01 -7.22965863E-14 -4.29687390E-04  1.51875745E+00  1.97032936E-01  4.00969312E-07  1.77207900E-05  2.31596998E+00
  4.10000000E-02  2.81003049E-01 -8.04402931E-14 -4.33842117E-04  1.51875224E+00  1.96948620E-01  4.23495722E-07  1.82445416E-05  2.31595280E+00
  4.20000000E-02  2.81001261E-01 -8.89263367E-14 -4.38269365E-04  1.51874703E+00  1.96865624E-01  4.47377320E-07  1.87695088E-05  2.31593559E+00
  4.30000000E-02  2.80999461E-01 -9.77547240E-14 -4.41926490E-04  1.51874179E+00  1.96783909E-01  4.72563380E-07  1.92925843E-05  2.31591837E+00
  4.40000000E-02  2.80997650E-01 -1.06925441E-13 -4.45864873E-04  1.51873654E+00  1.96703437E-01  4.99122570E-07  1.98159438E-05  2.31590112E+00
  4.50000000E-02  2.80995826E-01 -1.09199684E-13 -4.49042612E-04  1.51873127E+00  1.96624186E-01  5.27003913E-07  2.03364073E-05  2.31588384E+00
  4.60000000E-02  2.80993991E-01 -1.12017668E-13 -4.52513462E-04  1.51872599E+00  1.96546125E-01  5.56334950E-07  2.08560841E-05  2.31586652E+00
  4.70000000E-02  2.80992144E-01 -1.15395879E-13 -4.55235911E-04  1.51872068E+00  1.96469203E-01  5.87240469E-07  2.13715506E-05  2.31584917E+00
  4.80000000E-02  2.80990285E-01 -1.14269407E-13 -4.58266315E-04  1.51871537E+00  1.96393375E-01  6.19652731E-07  2.18855894E-05  2.31583177E+00
  4.90000000E-02  2.80988413E-01 -1.08907092E-13 -4.60903559E-04  1.51871000E+00  1.96318605E-01  6.53570907E-07  2.23963506E-05  2.31581422E+00
  5.00000000E-02  2.80986528E-01 -1.04706784E-13 -4.63337794E-04  1.51870460E+00  1.96244871E-01  6.89121876E-07  2.29041692E-05  2.31579659E+00
