 # time mean(w) mean(w**2)
  1.00000000E-03  1.00000002E+00  1.87655267E-03 -4.49504249E-04  4.64749444E+00  7.90885768E-01 -7.90989386E-01  1.00000209E+00  1.15935664E-02  4.39008898E-03  3.08748008E+02  9.99861712E-01  1.00013906E+00
  2.00000000E-03  1.00000009E+00  3.74230453E-03 -8.94252317E-04  4.64748631E+00  7.90786219E-01 -7.90989121E-01  1.00005735E+00  4.43473583E-02  1.94077416E-02  2.89535472E+02  9.99677479E-01  1.00036106E+00
  3.00000000E-03  1.00000020E+00  5.59517631E-03 -1.33550466E-03  4.64747876E+00  7.90684185E-01 -7.90988988E-01  1.00030474E+00  8.67669710E-02  4.50567034E-02  2.73421157E+02  9.99521482E-01  1.00074988E+00
  4.00000000E-03  1.00000033E+00  7.43634002E-03 -1.77369767E-03  4.64746811E+00  7.90576948E-01 -7.90988965E-01  1.00079081E+00  1.32350054E-01  7.74365534E-02  2.58788428E+02  9.99417273E-01  1.00133209E+00
  5.00000000E-03  1.00000048E+00  9.26751035E-03 -2.20916446E-03  4.64745260E+00  7.90463857E-01 -7.90989014E-01  1.00153546E+00  1.77937067E-01  1.11697568E-01  2.44652866E+02  9.99390280E-01  1.00210196E+00
  6.00000000E-03  1.00000063E+00  1.10900754E-02 -2.64211822E-03  4.64743137E+00  7.90344929E-01 -7.90989099E-01  1.00250407E+00  2.26074758E-01  1.47128359E-01  2.31014968E+02  9.99455041E-01  1.00301790E+00
  7.00000000E-03  1.00000079E+00  1.29047005E-02 -3.07273394E-03  4.64740569E+00  7.90220154E-01 -7.90989189E-01  1.00361277E+00  2.72941986E-01  1.83862282E-01  2.17731813E+02  9.99617194E-01  1.00402670E+00
  8.00000000E-03  1.00000093E+00  1.47118522E-02 -3.50109903E-03  4.64737558E+00  7.90089620E-01 -7.90989263E-01  1.00477829E+00  3.18287842E-01  2.21880485E-01  2.05206755E+02  9.99858253E-01  1.00506220E+00
  9.00000000E-03  1.00000106E+00  1.65117493E-02 -3.92734204E-03  4.64733893E+00  7.89953625E-01 -7.90989305E-01  1.00606479E+00  3.62731175E-01  2.60225925E-01  1.93299020E+02  1.00016972E+00  1.00621889E+00
  1.00000000E-02  1.00000115E+00  1.83046446E-02 -4.35158233E-03  4.64729698E+00  7.89813365E-01 -7.90989292E-01  1.00735892E+00  4.06715370E-01  2.97081342E-01  1.82306875E+02  1.00054392E+00  1.00737647E+00
  1.10000000E-02  1.00000121E+00  2.00906889E-02 -4.77391909E-03  4.64725246E+00  7.89669934E-01 -7.90989208E-01  1.00880667E+00  4.49945252E-01  3.30780310E-01  1.71929874E+02  1.00099707E+00  1.00867611E+00
  1.20000000E-02  1.00000123E+00  2.18698842E-02 -5.19444608E-03  4.64720520E+00  7.89523635E-01 -7.90989039E-01  1.01024631E+00  4.93268796E-01  3.61387917E-01  1.62390390E+02  1.00150754E+00  1.00997792E+00
  1.30000000E-02  1.00000121E+00  2.36423561E-02 -5.61323635E-03  4.64715414E+00  7.89374863E-01 -7.90988760E-01  1.01180898E+00  5.34449507E-01  3.89943167E-01  1.53657621E+02  1.00207027E+00  1.01140859E+00
  1.40000000E-02  1.00000114E+00  2.54083783E-02 -6.03034840E-03  4.64710255E+00  7.89224436E-01 -7.90988354E-01  1.01338070E+00  5.75311891E-01  4.17166854E-01  1.46146067E+02  1.00269661E+00  1.01285052E+00
  1.50000000E-02  1.00000103E+00  2.71683592E-02 -6.44582889E-03  4.64705131E+00  7.89072300E-01 -7.90987813E-01  1.01507605E+00  6.12359031E-01  4.43674996E-01  1.39621307E+02  1.00340269E+00  1.01439216E+00
  1.60000000E-02  1.00000086E+00  2.89227566E-02 -6.85973414E-03  4.64699742E+00  7.88917521E-01 -7.90987128E-01  1.01681557E+00  6.49363139E-01  4.69081039E-01  1.34205748E+02  1.00418836E+00  1.01597609E+00
  1.70000000E-02  1.00000064E+00  3.06721243E-02 -7.27210784E-03  4.64694039E+00  7.88761151E-01 -7.90986291E-01  1.01863710E+00  6.81753002E-01  4.92573892E-01  1.29480165E+02  1.00505587E+00  1.01762223E+00
  1.80000000E-02  1.00000037E+00  3.24169787E-02 -7.68300433E-03  4.64688133E+00  7.88603850E-01 -7.90985293E-01  1.02053203E+00  7.14860938E-01  5.14837091E-01  1.25460478E+02  1.00600927E+00  1.01934882E+00
  1.90000000E-02  1.00000004E+00  3.41579294E-02 -8.09246256E-03  4.64682135E+00  7.88445410E-01 -7.90984124E-01  1.02243849E+00  7.43289576E-01  5.36421667E-01  1.21959606E+02  1.00702299E+00  1.02109627E+00
  2.00000000E-02  9.99999663E-01  3.58955236E-02 -8.50052885E-03  4.64676053E+00  7.88285431E-01 -7.90982770E-01  1.02443585E+00  7.72721679E-01  5.57743782E-01  1.19037663E+02  1.00809292E+00  1.02295993E+00
  2.10000000E-02  9.99999226E-01  3.76303054E-02 -8.90724500E-03  4.64669835E+00  7.88124628E-01 -7.90981224E-01  1.02643542E+00  7.98107280E-01  5.79009679E-01  1.16534446E+02  1.00921864E+00  1.02481248E+00
  2.20000000E-02  9.99998733E-01  3.93626997E-02 -9.31266351E-03  4.64663403E+00  7.87963700E-01 -7.90979485E-01  1.02854328E+00  8.24187197E-01  5.99232539E-01  1.14314306E+02  1.01040255E+00  1.02677747E+00
  2.30000000E-02  9.99998184E-01  4.10930244E-02 -9.71683161E-03  4.64656760E+00  7.87802503E-01 -7.90977548E-01  1.03063726E+00  8.47784712E-01  6.18070892E-01  1.12250372E+02  1.01163883E+00  1.02872349E+00
  2.40000000E-02  9.99997579E-01  4.28215478E-02 -1.01198027E-02  4.64650055E+00  7.87641158E-01 -7.90975414E-01  1.03280258E+00  8.70906689E-01  6.36415483E-01  1.10275452E+02  1.01293121E+00  1.03074984E+00
  2.50000000E-02  9.99996917E-01  4.45484274E-02 -1.05216271E-02  4.64643538E+00  7.87480099E-01 -7.90973076E-01  1.03493552E+00  8.93474710E-01  6.54689386E-01  1.08496800E+02  1.01425609E+00  1.03277433E+00
  2.60000000E-02  9.99996199E-01  4.62738119E-02 -1.09223550E-02  4.64637027E+00  7.87318807E-01 -7.90970537E-01  1.03707740E+00  9.14257092E-01  6.72607168E-01  1.06786325E+02  1.01558644E+00  1.03482966E+00
  2.70000000E-02  9.99995424E-01  4.79980701E-02 -1.13220460E-02  4.64631987E+00  7.87158554E-01 -7.90964050E-01  1.03923562E+00  9.35986403E-01  6.89875375E-01  1.05216070E+02  1.01694824E+00  1.03691746E+00
  2.80000000E-02  9.99994597E-01  4.97227864E-02 -1.17252134E-02  4.64630883E+00  7.87057454E-01 -7.90966138E-01  1.04138179E+00  9.55043024E-01  7.05907008E-01  1.03600182E+02  1.01835807E+00  1.03902406E+00
  2.90000000E-02  9.99993746E-01  5.14497785E-02 -1.21271072E-02  4.64635410E+00  7.87023117E-01 -7.90962921E-01  1.04356489E+00  9.75078077E-01  7.20913243E-01  1.02005322E+02  1.01992760E+00  1.04113404E+00
  3.00000000E-02  9.99992881E-01  5.31724965E-02 -1.25264431E-02  4.64640263E+00  7.86991258E-01 -7.90959491E-01  1.04572402E+00  9.93211686E-01  7.35448730E-01  1.00400436E+02  1.02151208E+00  1.04319685E+00
  3.10000000E-02  9.99991996E-01  5.48929363E-02 -1.29244751E-02  4.64645176E+00  7.86961736E-01 -7.90955850E-01  1.04788384E+00  1.01105267E+00  7.49660125E-01  9.88200892E+01  1.02309699E+00  1.04527679E+00
  3.20000000E-02  9.99991085E-01  5.66115394E-02 -1.33215942E-02  4.64650188E+00  7.86933983E-01 -7.90952001E-01  1.05000850E+00  1.02844420E+00  7.63506072E-01  9.73108882E+01  1.02465990E+00  1.04731484E+00
  3.30000000E-02  9.99990147E-01  5.83285194E-02 -1.37179781E-02  4.64655235E+00  7.86907449E-01 -7.90947946E-01  1.05210251E+00  1.04392610E+00  7.76500161E-01  9.57941557E+01  1.02618863E+00  1.04933439E+00
  3.40000000E-02  9.99989182E-01  6.00439156E-02 -1.41137274E-02  4.64660308E+00  7.86881732E-01 -7.90943688E-01  1.05419810E+00  1.05988041E+00  7.88317583E-01  9.43140431E+01  1.02768253E+00  1.05133092E+00
  3.50000000E-02  9.99988191E-01  6.17577869E-02 -1.45089162E-02  4.64665355E+00  7.86856551E-01 -7.90939238E-01  1.05625032E+00  1.07336726E+00  7.98927198E-01  9.27908661E+01  1.02915067E+00  1.05326927E+00
  3.60000000E-02  9.99987174E-01  6.34701285E-02 -1.49036149E-02  4.64670371E+00  7.86831708E-01 -7.90934602E-01  1.05831184E+00  1.08688098E+00  8.08830819E-01  9.12809191E+01  1.03059928E+00  1.05519323E+00
  3.70000000E-02  9.99986129E-01  6.51809286E-02 -1.52978673E-02  4.64675340E+00  7.86807123E-01 -7.90929789E-01  1.06032307E+00  1.09893155E+00  8.18161125E-01  8.97931953E+01  1.03202369E+00  1.05705046E+00
  3.80000000E-02  9.99985056E-01  6.68902147E-02 -1.56917139E-02  4.64680304E+00  7.86782756E-01 -7.90924806E-01  1.06229297E+00  1.10945781E+00  8.26975126E-01  8.83178240E+01  1.03341640E+00  1.05887201E+00
  3.90000000E-02  9.99983954E-01  6.85979790E-02 -1.60851851E-02  4.64685252E+00  7.86758579E-01 -7.90919654E-01  1.06422727E+00  1.11992612E+00  8.35243896E-01  8.69131372E+01  1.03476577E+00  1.06064554E+00
  4.00000000E-02  9.99982826E-01  7.03042447E-02 -1.64783044E-02  4.64690192E+00  7.86734566E-01 -7.90914348E-01  1.06610082E+00  1.12818358E+00  8.42567734E-01  8.55129673E+01  1.03606752E+00  1.06236267E+00
  4.10000000E-02  9.99981671E-01  7.20090218E-02 -1.68711020E-02  4.64695108E+00  7.86710699E-01 -7.90908886E-01  1.06796457E+00  1.13620880E+00  8.48971056E-01  8.41369659E+01  1.03732698E+00  1.06404438E+00
  4.20000000E-02  9.99980490E-01  7.37123270E-02 -1.72635917E-02  4.64699992E+00  7.86686963E-01 -7.90903278E-01  1.06978651E+00  1.14304714E+00  8.54521964E-01  8.27823486E+01  1.03855614E+00  1.06566360E+00
  4.30000000E-02  9.99979286E-01  7.54142069E-02 -1.76557881E-02  4.64704876E+00  7.86663346E-01 -7.90897529E-01  1.07157734E+00  1.14844418E+00  8.59581399E-01  8.14312464E+01  1.03976117E+00  1.06724008E+00
  4.40000000E-02  9.99978059E-01  7.71146917E-02 -1.80477040E-02  4.64709746E+00  7.86639837E-01 -7.90891636E-01  1.07334547E+00  1.15376118E+00  8.64262178E-01  8.01346826E+01  1.04094091E+00  1.06877197E+00
  4.50000000E-02  9.99976811E-01  7.88138350E-02 -1.84393384E-02  4.64714627E+00  7.86616428E-01 -7.90885608E-01  1.07504528E+00  1.15742546E+00  8.68544762E-01  7.88660561E+01  1.04209093E+00  1.07024963E+00
  4.60000000E-02  9.99975543E-01  8.05116928E-02 -1.88307017E-02  4.64719514E+00  7.86593112E-01 -7.90879444E-01  1.07671607E+00  1.16057201E+00  8.72377829E-01  7.76391664E+01  1.04320172E+00  1.07169419E+00
  4.70000000E-02  9.99974256E-01  8.22083022E-02 -1.92217842E-02  4.64724400E+00  7.86569884E-01 -7.90873154E-01  1.07833812E+00  1.16328462E+00  8.75552065E-01  7.64635912E+01  1.04426927E+00  1.07309176E+00
  4.80000000E-02  9.99972950E-01  8.39037260E-02 -1.96125907E-02  4.64729302E+00  7.86546739E-01 -7.90866741E-01  1.07991458E+00  1.16437906E+00  8.78022394E-01  7.52932115E+01  1.04530024E+00  1.07443942E+00
  4.90000000E-02  9.99971626E-01  8.55980261E-02 -2.00031103E-02  4.64731951E+00  7.86534980E-01 -7.90860208E-01  1.08148774E+00  1.16567346E+00  8.80016272E-01  7.41606796E+01  1.04635900E+00  1.07565361E+00
  5.00000000E-02  9.99970286E-01  8.72915895E-02 -2.03936722E-02  4.64733747E+00  7.86523297E-01 -7.90853557E-01  1.08302096E+00  1.16607943E+00  8.81576371E-01  7.30583807E+01  1.04738627E+00  1.07682567E+00
