 # time mean(w) mean(w**2)
  1.00000000E-03  9.99999989E-01  1.88881330E-03 -4.61026540E-04  4.64727903E+00  7.90679734E-01 -7.90986911E-01  1.00000203E+00  1.15933211E-02  4.39076686E-03  3.08749655E+02  9.99533333E-01  1.00000432E+00
  2.00000000E-03  9.99999962E-01  3.76700076E-03 -9.17464609E-04  4.64698211E+00  7.90307359E-01 -7.90981004E-01  1.00005709E+00  4.43472096E-02  1.94096380E-02  2.89534633E+02  9.99055683E-01  9.99945816E-01
  3.00000000E-03  9.99999937E-01  5.63106987E-03 -1.36878910E-03  4.64669139E+00  7.89939898E-01 -7.90975439E-01  1.00030422E+00  8.67672345E-02  4.50603656E-02  2.73417935E+02  9.98614052E-01  1.00005798E+00
  4.00000000E-03  9.99999931E-01  7.48278046E-03 -1.81599243E-03  4.64640525E+00  7.89576306E-01 -7.90970137E-01  1.00079002E+00  1.32351008E-01  7.74422584E-02  2.58782878E+02  9.98236364E-01  1.00036695E+00
  5.00000000E-03  9.99999960E-01  9.32399649E-03 -2.25959721E-03  4.64612242E+00  7.89216018E-01 -7.90965047E-01  1.00153445E+00  1.77938631E-01  1.11705555E-01  2.44645060E+02  9.97948726E-01  1.00086716E+00
  6.00000000E-03  1.00000004E+00  1.11562016E-02 -2.69994971E-03  4.64584187E+00  7.88858676E-01 -7.90960129E-01  1.00250293E+00  2.26077336E-01  1.47139409E-01  2.31005022E+02  9.97764708E-01  1.00151684E+00
  7.00000000E-03  1.00000017E+00  1.29801380E-02 -3.13734295E-03  4.64556398E+00  7.88504048E-01 -7.90955359E-01  1.00361166E+00  2.72947966E-01  1.83877416E-01  2.17719841E+02  9.97689058E-01  1.00225969E+00
  8.00000000E-03  1.00000038E+00  1.47963552E-02 -3.57197724E-03  4.64528895E+00  7.88151994E-01 -7.90950715E-01  1.00477737E+00  3.18298575E-01  2.21901485E-01  2.05192750E+02  9.97704957E-01  1.00302925E+00
  9.00000000E-03  1.00000067E+00  1.66051760E-02 -4.00400799E-03  4.64505110E+00  7.87859699E-01 -7.90948396E-01  1.00606432E+00  3.62742554E-01  2.60252806E-01  1.93283198E+02  9.97896965E-01  1.00393847E+00
  1.00000000E-02  1.00000104E+00  1.84068324E-02 -4.43333663E-03  4.64485020E+00  7.87626178E-01 -7.90948268E-01  1.00735923E+00  4.06725693E-01  2.97113579E-01  1.82289837E+02  9.98195927E-01  1.00485433E+00
  1.10000000E-02  1.00000149E+00  2.02016733E-02 -4.86063741E-03  4.64465042E+00  7.87393717E-01 -7.90948035E-01  1.00880802E+00  4.49959459E-01  3.30816646E-01  1.71911540E+02  9.98577828E-01  1.00591343E+00
  1.20000000E-02  1.00000204E+00  2.19898161E-02 -5.28622593E-03  4.64445209E+00  7.87162235E-01 -7.90947679E-01  1.01024886E+00  4.93286920E-01  3.61428774E-01  1.62370571E+02  9.99024014E-01  1.00697787E+00
  1.30000000E-02  1.00000269E+00  2.37714468E-02 -5.71026299E-03  4.64425484E+00  7.86931679E-01 -7.90947182E-01  1.01181295E+00  5.34471382E-01  3.89987165E-01  1.53636459E+02  9.99528844E-01  1.00817552E+00
  1.40000000E-02  1.00000344E+00  2.55468819E-02 -6.13286027E-03  4.64405886E+00  7.86702011E-01 -7.90946532E-01  1.01338631E+00  5.75329893E-01  4.17213315E-01  1.46123324E+02  1.00009598E+00  1.00938760E+00
  1.50000000E-02  1.00000432E+00  2.73165635E-02 -6.55410327E-03  4.64386393E+00  7.86473194E-01 -7.90945725E-01  1.01508347E+00  6.12363660E-01  4.43723816E-01  1.39596405E+02  1.00074344E+00  1.01069844E+00
  1.60000000E-02  1.00000531E+00  2.90809797E-02 -6.97408025E-03  4.64367018E+00  7.86245197E-01 -7.90944753E-01  1.01682528E+00  6.49364794E-01  4.69138785E-01  1.34178979E+02  1.00147676E+00  1.01205296E+00
  1.70000000E-02  1.00000644E+00  3.08407085E-02 -7.39286046E-03  4.64347743E+00  7.86017994E-01 -7.90943610E-01  1.01864958E+00  6.81768570E-01  4.92638259E-01  1.29452049E+02  1.00229636E+00  1.01347297E+00
  1.80000000E-02  1.00000770E+00  3.25962856E-02 -7.81051914E-03  4.64328571E+00  7.85791560E-01 -7.90942286E-01  1.02054764E+00  7.14891947E-01  5.14904075E-01  1.25431355E+02  1.00320453E+00  1.01497584E+00
  1.90000000E-02  1.00000911E+00  3.43483381E-02 -8.22711023E-03  4.64309499E+00  7.85565874E-01 -7.90940774E-01  1.02245750E+00  7.43313395E-01  5.36487160E-01  1.21928724E+02  1.00417153E+00  1.01650115E+00
  2.00000000E-02  1.00001065E+00  3.60974263E-02 -8.64269066E-03  4.64290520E+00  7.85340914E-01 -7.90939062E-01  1.02445890E+00  7.72740689E-01  5.57815573E-01  1.19005141E+02  1.00519464E+00  1.01814420E+00
  2.10000000E-02  1.00001234E+00  3.78441035E-02 -9.05731261E-03  4.64271636E+00  7.85116663E-01 -7.90937144E-01  1.02646328E+00  7.98130106E-01  5.79092074E-01  1.16500419E+02  1.00627433E+00  1.01977647E+00
  2.20000000E-02  1.00001418E+00  3.95888050E-02 -9.47103520E-03  4.64252798E+00  7.84893103E-01 -7.90935021E-01  1.02857636E+00  8.24212461E-01  5.99331394E-01  1.14278814E+02  1.00741479E+00  1.02152446E+00
  2.30000000E-02  1.00001616E+00  4.13318557E-02 -9.88391319E-03  4.64234026E+00  7.84670217E-01 -7.90932695E-01  1.03067591E+00  8.47817084E-01  6.18184674E-01  1.12213929E+02  1.00860970E+00  1.02325390E+00
  2.40000000E-02  1.00001829E+00  4.30735292E-02 -1.02960058E-02  4.64215278E+00  7.84447992E-01 -7.90930168E-01  1.03284730E+00  8.70951591E-01  6.36541362E-01  1.10238040E+02  1.00985799E+00  1.02506449E+00
  2.50000000E-02  1.00002057E+00  4.48139866E-02 -1.07073653E-02  4.64196617E+00  7.84226413E-01 -7.90927435E-01  1.03498677E+00  8.93528996E-01  6.54829729E-01  1.08457920E+02  1.01113383E+00  1.02687426E+00
  2.60000000E-02  1.00002299E+00  4.65533786E-02 -1.11180415E-02  4.64178020E+00  7.84005466E-01 -7.90924499E-01  1.03713558E+00  9.14319159E-01  6.72765067E-01  1.06745508E+02  1.01241567E+00  1.02871493E+00
  2.70000000E-02  1.00002557E+00  4.82917227E-02 -1.15280875E-02  4.64159513E+00  7.83785140E-01 -7.90921355E-01  1.03930070E+00  9.36051953E-01  6.90044021E-01  1.05172744E+02  1.01370199E+00  1.03058633E+00
  2.80000000E-02  1.00002829E+00  5.00290496E-02 -1.19375528E-02  4.64141079E+00  7.83565422E-01 -7.90918011E-01  1.04145416E+00  9.55112900E-01  7.06085075E-01  1.03554908E+02  1.01499636E+00  1.03243589E+00
  2.90000000E-02  1.00003115E+00  5.17653275E-02 -1.23464904E-02  4.64122686E+00  7.83346301E-01 -7.90914470E-01  1.04364531E+00  9.75164687E-01  7.21099472E-01  1.01958602E+02  1.01630047E+00  1.03432435E+00
  3.00000000E-02  1.00003416E+00  5.35005303E-02 -1.27549452E-02  4.64104373E+00  7.83127767E-01 -7.90910744E-01  1.04581283E+00  9.93314410E-01  7.35640705E-01  1.00352045E+02  1.01761196E+00  1.03616911E+00
  3.10000000E-02  1.00003731E+00  5.52346496E-02 -1.31629589E-02  4.64086107E+00  7.82909808E-01 -7.90906836E-01  1.04798147E+00  1.01117068E+00  7.49860354E-01  9.87698669E+01  1.01892050E+00  1.03803323E+00
  3.20000000E-02  1.00004061E+00  5.69676299E-02 -1.35705690E-02  4.64067946E+00  7.82692416E-01 -7.90902751E-01  1.05011556E+00  1.02858188E+00  7.63717700E-01  9.72590646E+01  1.02020388E+00  1.03985765E+00
  3.30000000E-02  1.00004404E+00  5.86994559E-02 -1.39778059E-02  4.64049843E+00  7.82475582E-01 -7.90898499E-01  1.05221911E+00  1.04407802E+00  7.76724582E-01  9.57408383E+01  1.02145064E+00  1.04166468E+00
  3.40000000E-02  1.00004761E+00  6.04300523E-02 -1.43847067E-02  4.64031819E+00  7.82259295E-01 -7.90894080E-01  1.05432452E+00  1.06004896E+00  7.88550292E-01  9.42592021E+01  1.02266053E+00  1.04344967E+00
  3.50000000E-02  1.00005131E+00  6.21593866E-02 -1.47912898E-02  4.64013846E+00  7.82043549E-01 -7.90889505E-01  1.05638672E+00  1.07354706E+00  7.99163811E-01  9.27341793E+01  1.02384369E+00  1.04517731E+00
  3.60000000E-02  1.00005515E+00  6.38874214E-02 -1.51975926E-02  4.63995939E+00  7.81828334E-01 -7.90884775E-01  1.05845877E+00  1.08707816E+00  8.09072686E-01  9.12223341E+01  1.02500698E+00  1.04689141E+00
  3.70000000E-02  1.00005913E+00  6.56141260E-02 -1.56036310E-02  4.63978088E+00  7.81613643E-01 -7.90879897E-01  1.06048083E+00  1.09914694E+00  8.18410452E-01  8.97328414E+01  1.02614603E+00  1.04854012E+00
  3.80000000E-02  1.00006323E+00  6.73395052E-02 -1.60094240E-02  4.63960337E+00  7.81399468E-01 -7.90874874E-01  1.06246191E+00  1.10968876E+00  8.27234137E-01  8.82556199E+01  1.02725324E+00  1.05015386E+00
  3.90000000E-02  1.00006746E+00  6.90635313E-02 -1.64149858E-02  4.63942671E+00  7.81185802E-01 -7.90869707E-01  1.06440758E+00  1.12017822E+00  8.35512804E-01  8.68493373E+01  1.02831735E+00  1.05172088E+00
  4.00000000E-02  1.00007183E+00  7.07862124E-02 -1.68203259E-02  4.63925098E+00  7.80972637E-01 -7.90864405E-01  1.06629261E+00  1.12845046E+00  8.42843815E-01  8.54474120E+01  1.02933403E+00  1.05323228E+00
  4.10000000E-02  1.00007631E+00  7.25075442E-02 -1.72254625E-02  4.63907601E+00  7.80759967E-01 -7.90858967E-01  1.06816823E+00  1.13649791E+00  8.49252210E-01  8.40697233E+01  1.03030864E+00  1.05470959E+00
  4.20000000E-02  1.00008092E+00  7.42275320E-02 -1.76303988E-02  4.63890169E+00  7.80547786E-01 -7.90853396E-01  1.07000230E+00  1.14335441E+00  8.54806067E-01  8.27132895E+01  1.03125299E+00  1.05612503E+00
  4.30000000E-02  1.00008566E+00  7.59462120E-02 -1.80351409E-02  4.63872833E+00  7.80336086E-01 -7.90847698E-01  1.07180570E+00  1.14877284E+00  8.59867946E-01  8.13602736E+01  1.03217341E+00  1.05749868E+00
  4.40000000E-02  1.00009052E+00  7.76636046E-02 -1.84396947E-02  4.63855578E+00  7.80124862E-01 -7.90841866E-01  1.07358686E+00  1.15411237E+00  8.64555782E-01  8.00619267E+01  1.03306878E+00  1.05882880E+00
  4.50000000E-02  1.00009550E+00  7.93797553E-02 -1.88440538E-02  4.63838428E+00  7.79914108E-01 -7.90835906E-01  1.07530001E+00  1.15779705E+00  8.68845261E-01  7.87913805E+01  1.03393475E+00  1.06010542E+00
  4.60000000E-02  1.00010059E+00  8.10947135E-02 -1.92482229E-02  4.63821376E+00  7.79703818E-01 -7.90829815E-01  1.07698445E+00  1.16097060E+00  8.72690232E-01  7.75629126E+01  1.03476214E+00  1.06134995E+00
  4.70000000E-02  1.00010581E+00  8.28085109E-02 -1.96521870E-02  4.63804414E+00  7.79493986E-01 -7.90823599E-01  1.07862035E+00  1.16370744E+00  8.75875048E-01  7.63856544E+01  1.03554680E+00  1.06254853E+00
  4.80000000E-02  1.00011114E+00  8.45212055E-02 -2.00559464E-02  4.63787558E+00  7.79284606E-01 -7.90817261E-01  1.08021087E+00  1.16482911E+00  8.78353468E-01  7.52136334E+01  1.03629497E+00  1.06369800E+00
  4.90000000E-02  1.00011659E+00  8.62328539E-02 -2.04594859E-02  4.63780091E+00  7.79180648E-01 -7.90810719E-01  1.08179840E+00  1.16614921E+00  8.80353961E-01  7.40804523E+01  1.03720662E+00  1.06481045E+00
  5.00000000E-02  1.00012216E+00  8.79439539E-02 -2.08631681E-02  4.63771824E+00  7.79076799E-01 -7.90804060E-01  1.08334629E+00  1.16658406E+00  8.81919356E-01  7.29774564E+01  1.03808666E+00  1.06588119E+00
