 # time mean(w) mean(w**2)
  1.00000000E-03  9.99998427E-01  1.89152912E-03 -4.52089792E-04  4.64748994E+00  7.90885787E-01 -7.90988020E-01  1.00007241E+00  1.29084434E-02  5.04741799E-03  3.08219511E+02  9.99881208E-01  1.00017070E+00
  2.00000000E-03  9.99995734E-01  3.77177324E-03 -8.99024962E-04  4.64746925E+00  7.90786245E-01 -7.90986161E-01  1.00026172E+00  4.63952362E-02  2.17238211E-02  2.89291771E+02  9.99749806E-01  1.00044324E+00
  3.00000000E-03  9.99990572E-01  5.64375201E-03 -1.34250334E-03  4.64744682E+00  7.90685393E-01 -7.90984007E-01  1.00065425E+00  8.86653069E-02  4.84118283E-02  2.73701096E+02  9.99666707E-01  1.00089209E+00
  4.00000000E-03  9.99983564E-01  7.50542131E-03 -1.78306465E-03  4.64741726E+00  7.90580153E-01 -7.90981668E-01  1.00132168E+00  1.36568373E-01  8.07449662E-02  2.59368763E+02  9.99636922E-01  1.00158650E+00
  5.00000000E-03  9.99975932E-01  9.35776283E-03 -2.22152595E-03  4.64741814E+00  7.90484272E-01 -7.90979837E-01  1.00223588E+00  1.85295095E-01  1.14918082E-01  2.45417744E+02  9.99729676E-01  1.00251174E+00
  6.00000000E-03  9.99969086E-01  1.11983478E-02 -2.65756745E-03  4.64742193E+00  7.90409742E-01 -7.90975866E-01  1.00337917E+00  2.38153528E-01  1.50182475E-01  2.31902677E+02  9.99971632E-01  1.00358272E+00
  7.00000000E-03  9.99961655E-01  1.30291436E-02 -3.09086668E-03  4.64742260E+00  7.90333300E-01 -7.90971898E-01  1.00454668E+00  2.86440556E-01  1.86668284E-01  2.18596007E+02  1.00032581E+00  1.00468599E+00
  8.00000000E-03  9.99953785E-01  1.48509054E-02 -3.52289463E-03  4.64741848E+00  7.90252406E-01 -7.90967748E-01  1.00576195E+00  3.32885751E-01  2.24646034E-01  2.06042516E+02  1.00077674E+00  1.00574818E+00
  9.00000000E-03  9.99945658E-01  1.66646263E-02 -3.95267772E-03  4.64740825E+00  7.90165271E-01 -7.90963367E-01  1.00715056E+00  3.77733927E-01  2.64127315E-01  1.93943843E+02  1.00131478E+00  1.00695282E+00
  1.00000000E-02  9.99937266E-01  1.84705836E-02 -4.38069221E-03  4.64739637E+00  7.90074942E-01 -7.90958821E-01  1.00858703E+00  4.23664260E-01  3.03738173E-01  1.82872357E+02  1.00192808E+00  1.00819419E+00
  1.10000000E-02  9.99928579E-01  2.02695000E-02 -4.80693815E-03  4.64738644E+00  7.89985488E-01 -7.90954159E-01  1.01009483E+00  4.65919162E-01  3.40711999E-01  1.72399555E+02  1.00262073E+00  1.00957073E+00
  1.20000000E-02  9.99919549E-01  2.20616071E-02 -5.23143073E-03  4.64737546E+00  7.89898221E-01 -7.90949248E-01  1.01158450E+00  5.07819842E-01  3.73842160E-01  1.62819413E+02  1.00337975E+00  1.01091470E+00
  1.30000000E-02  9.99910176E-01  2.38469569E-02 -5.65434451E-03  4.64736109E+00  7.89812273E-01 -7.90944067E-01  1.01318950E+00  5.47666233E-01  4.04129998E-01  1.53957359E+02  1.00420127E+00  1.01238429E+00
  1.40000000E-02  9.99900465E-01  2.56260654E-02 -6.07561916E-03  4.64734823E+00  7.89726395E-01 -7.90938608E-01  1.01476549E+00  5.86217125E-01  4.32835259E-01  1.46364031E+02  1.00509757E+00  1.01385245E+00
  1.50000000E-02  9.99890426E-01  2.73992728E-02 -6.49546084E-03  4.64733858E+00  7.89639642E-01 -7.90932957E-01  1.01648494E+00  6.22034118E-01  4.61014741E-01  1.39752668E+02  1.00607860E+00  1.01543849E+00
  1.60000000E-02  9.99880097E-01  2.91674879E-02 -6.91371396E-03  4.64732928E+00  7.89552239E-01 -7.90927226E-01  1.01824901E+00  6.57576848E-01  4.88862210E-01  1.34366239E+02  1.00714548E+00  1.01706363E+00
  1.70000000E-02  9.99869471E-01  3.09311906E-02 -7.33085798E-03  4.64733385E+00  7.89466011E-01 -7.90917599E-01  1.02012200E+00  6.89040369E-01  5.14711826E-01  1.29641778E+02  1.00832355E+00  1.01877836E+00
  1.80000000E-02  9.99859670E-01  3.26884335E-02 -7.74822692E-03  4.64734781E+00  7.89433743E-01 -7.90914913E-01  1.02206788E+00  7.21590677E-01  5.38389961E-01  1.25642683E+02  1.00960882E+00  1.02057719E+00
  1.90000000E-02  9.99849696E-01  3.44400584E-02 -8.16231515E-03  4.64736557E+00  7.89402629E-01 -7.90912017E-01  1.02406241E+00  7.49450051E-01  5.61266823E-01  1.22078264E+02  1.01096901E+00  1.02240264E+00
  2.00000000E-02  9.99839608E-01  3.61874198E-02 -8.57484177E-03  4.64738312E+00  7.89373171E-01 -7.90908953E-01  1.02608831E+00  7.79470652E-01  5.83569862E-01  1.19211096E+02  1.01237421E+00  1.02434992E+00
  2.10000000E-02  9.99829445E-01  3.79327088E-02 -8.98470531E-03  4.64740078E+00  7.89345048E-01 -7.90905773E-01  1.02808677E+00  8.04239811E-01  6.05194873E-01  1.16721272E+02  1.01381483E+00  1.02628493E+00
  2.20000000E-02  9.99819203E-01  3.96761455E-02 -9.39254464E-03  4.64741755E+00  7.89317913E-01 -7.90902466E-01  1.03018127E+00  8.31659368E-01  6.25338249E-01  1.14611673E+02  1.01529568E+00  1.02834326E+00
  2.30000000E-02  9.99808881E-01  4.14180349E-02 -9.79876554E-03  4.64743402E+00  7.89291515E-01 -7.90899035E-01  1.03224276E+00  8.54887456E-01  6.43519146E-01  1.12581058E+02  1.01681609E+00  1.03037392E+00
  2.40000000E-02  9.99798488E-01  4.31585220E-02 -1.02038198E-02  4.64744943E+00  7.89265676E-01 -7.90895480E-01  1.03439764E+00  8.79348921E-01  6.60733931E-01  1.10647851E+02  1.01838321E+00  1.03249937E+00
  2.50000000E-02  9.99788026E-01  4.48977941E-02 -1.06077488E-02  4.64746451E+00  7.89240274E-01 -7.90891795E-01  1.03652264E+00  9.01836401E-01  6.78295476E-01  1.08858326E+02  1.01999090E+00  1.03460717E+00
  2.60000000E-02  9.99777498E-01  4.66360718E-02 -1.10107782E-02  4.64747907E+00  7.89215197E-01 -7.90887988E-01  1.03868542E+00  9.23477424E-01  6.96317082E-01  1.07165334E+02  1.02161614E+00  1.03675291E+00
  2.70000000E-02  9.99766904E-01  4.83733791E-02 -1.14131090E-02  4.64749349E+00  7.89190331E-01 -7.90884058E-01  1.04084215E+00  9.45553671E-01  7.14038790E-01  1.05627709E+02  1.02324084E+00  1.03891531E+00
  2.80000000E-02  9.99756254E-01  5.01097726E-02 -1.18146845E-02  4.64750764E+00  7.89165604E-01 -7.90880012E-01  1.04298901E+00  9.64989587E-01  7.30455742E-01  1.04039180E+02  1.02486428E+00  1.04105844E+00
  2.90000000E-02  9.99745554E-01  5.18451203E-02 -1.22156799E-02  4.64752108E+00  7.89141001E-01 -7.90875855E-01  1.04517164E+00  9.85983440E-01  7.45510258E-01  1.02482639E+02  1.02649825E+00  1.04324173E+00
  3.00000000E-02  9.99734805E-01  5.35793981E-02 -1.26160415E-02  4.64753400E+00  7.89116513E-01 -7.90871593E-01  1.04730966E+00  1.00424410E+00  7.59579490E-01  1.00868531E+02  1.02813642E+00  1.04536746E+00
  3.10000000E-02  9.99724007E-01  5.53125496E-02 -1.30158858E-02  4.64754579E+00  7.89092137E-01 -7.90867224E-01  1.04947184E+00  1.02292959E+00  7.73347612E-01  9.92801778E+01  1.02977462E+00  1.04751485E+00
  3.20000000E-02  9.99713161E-01  5.70445453E-02 -1.34152726E-02  4.64755728E+00  7.89067866E-01 -7.90862740E-01  1.05158573E+00  1.04049782E+00  7.87016730E-01  9.77551796E+01  1.03139560E+00  1.04961084E+00
  3.30000000E-02  9.99702266E-01  5.87753697E-02 -1.38143312E-02  4.64756778E+00  7.89043695E-01 -7.90858139E-01  1.05367586E+00  1.05628106E+00  8.00053160E-01  9.62262485E+01  1.03297763E+00  1.05168030E+00
  3.40000000E-02  9.99691322E-01  6.05048830E-02 -1.42129832E-02  4.64757777E+00  7.89019621E-01 -7.90853418E-01  1.05576454E+00  1.07275986E+00  8.12058108E-01  9.47593342E+01  1.03452117E+00  1.05372813E+00
  3.50000000E-02  9.99680324E-01  6.22331489E-02 -1.46111035E-02  4.64758687E+00  7.88995640E-01 -7.90848580E-01  1.05780416E+00  1.08629248E+00  8.22808987E-01  9.32343919E+01  1.03603326E+00  1.05569767E+00
  3.60000000E-02  9.99669269E-01  6.39600708E-02 -1.50088222E-02  4.64759535E+00  7.88971749E-01 -7.90843622E-01  1.05987275E+00  1.10042712E+00  8.32832320E-01  9.17335148E+01  1.03752660E+00  1.05766392E+00
  3.70000000E-02  9.99658153E-01  6.56855921E-02 -1.54062494E-02  4.64760312E+00  7.88947946E-01 -7.90838541E-01  1.06188006E+00  1.11257996E+00  8.42252668E-01  9.02423943E+01  1.03899914E+00  1.05954081E+00
  3.80000000E-02  9.99646962E-01  6.74097515E-02 -1.58033573E-02  4.64761091E+00  7.88924228E-01 -7.90833341E-01  1.06386932E+00  1.12343531E+00  8.51286534E-01  8.87593995E+01  1.04044286E+00  1.06138661E+00
  3.90000000E-02  9.99635701E-01  6.91325652E-02 -1.62000122E-02  4.64761833E+00  7.88900593E-01 -7.90828018E-01  1.06581784E+00  1.13444036E+00  8.59799760E-01  8.73608187E+01  1.04184025E+00  1.06317862E+00
  4.00000000E-02  9.99624371E-01  7.08539738E-02 -1.65964871E-02  4.64762593E+00  7.88877039E-01 -7.90822569E-01  1.06768702E+00  1.14265569E+00  8.67220721E-01  8.59495122E+01  1.04318571E+00  1.06489979E+00
  4.10000000E-02  9.99612968E-01  7.25740592E-02 -1.69924796E-02  4.64763333E+00  7.88853565E-01 -7.90816991E-01  1.06955710E+00  1.15135923E+00  8.73695960E-01  8.45856931E+01  1.04448583E+00  1.06659476E+00
  4.20000000E-02  9.99601494E-01  7.42927427E-02 -1.73882564E-02  4.64764076E+00  7.88830169E-01 -7.90811281E-01  1.07136806E+00  1.15835435E+00  8.79202114E-01  8.32321723E+01  1.04574806E+00  1.06821323E+00
  4.30000000E-02  9.99589942E-01  7.60100643E-02 -1.77838084E-02  4.64764828E+00  7.88806849E-01 -7.90805430E-01  1.07316299E+00  1.16404340E+00  8.84239746E-01  8.18806555E+01  1.04698435E+00  1.06978958E+00
  4.40000000E-02  9.99578309E-01  7.77260964E-02 -1.81789461E-02  4.64765578E+00  7.88783606E-01 -7.90799432E-01  1.07493945E+00  1.16992893E+00  8.88911912E-01  8.05915888E+01  1.04819847E+00  1.07132167E+00
  4.50000000E-02  9.99566587E-01  7.94408593E-02 -1.85737795E-02  4.64766352E+00  7.88760438E-01 -7.90793280E-01  1.07664652E+00  1.17362913E+00  8.93268897E-01  7.93178258E+01  1.04938390E+00  1.07278794E+00
  4.60000000E-02  9.99554765E-01  8.11543829E-02 -1.89683766E-02  4.64767142E+00  7.88737345E-01 -7.90786957E-01  1.07833414E+00  1.17726441E+00  8.97196371E-01  7.80949574E+01  1.05052747E+00  1.07422371E+00
  4.70000000E-02  9.99542846E-01  8.28666754E-02 -1.93628741E-02  4.64767940E+00  7.88714325E-01 -7.90780477E-01  1.07996182E+00  1.18032507E+00  9.00386761E-01  7.69224548E+01  1.05162588E+00  1.07561336E+00
  4.80000000E-02  9.99530833E-01  8.45778495E-02 -1.97570249E-02  4.64767278E+00  7.88702763E-01 -7.90773843E-01  1.08153875E+00  1.18159137E+00  9.02771251E-01  7.57461768E+01  1.05268188E+00  1.07690494E+00
  4.90000000E-02  9.99518718E-01  8.62881614E-02 -2.01515472E-02  4.64765329E+00  7.88691259E-01 -7.90767042E-01  1.08311259E+00  1.18349439E+00  9.04545568E-01  7.46231173E+01  1.05371424E+00  1.07814941E+00
  5.00000000E-02  9.99506514E-01  8.79977954E-02 -2.05459303E-02  4.64762676E+00  7.88679802E-01 -7.90760085E-01  1.08463577E+00  1.18391811E+00  9.05845587E-01  7.35166604E+01  1.05472400E+00  1.07932378E+00
