 # time mean(w) mean(w**2)
  1.00000000E-03  1.00000001E+00  1.88629122E-03 -4.58731328E-04  4.64727913E+00  7.90677036E-01 -7.90986777E-01  1.00000181E+00  1.11980149E-02  4.34610242E-03  3.08303205E+02  9.99529527E-01  1.00000758E+00
  2.00000000E-03  1.00000002E+00  3.76277906E-03 -9.13021996E-04  4.64698318E+00  7.90302598E-01 -7.90980749E-01  1.00004614E+00  4.24541843E-02  1.90149084E-02  2.89061665E+02  9.99048865E-01  9.99943076E-01
  3.00000000E-03  1.00000004E+00  5.62544524E-03 -1.36215662E-03  4.64669373E+00  7.89933187E-01 -7.90975076E-01  1.00025250E+00  8.40853914E-02  4.37847051E-02  2.73017705E+02  9.98600862E-01  1.00002371E+00
  4.00000000E-03  1.00000008E+00  7.47542695E-03 -1.80716109E-03  4.64640916E+00  7.89567800E-01 -7.90969682E-01  1.00068986E+00  1.30062109E-01  7.52755926E-02  2.58321939E+02  9.98209151E-01  1.00030221E+00
  5.00000000E-03  1.00000016E+00  9.31458939E-03 -2.24858081E-03  4.64612839E+00  7.89205875E-01 -7.90964517E-01  1.00138583E+00  1.75969558E-01  1.09575681E-01  2.44210434E+02  9.97897045E-01  1.00078273E+00
  6.00000000E-03  1.00000029E+00  1.11445379E-02 -2.68678640E-03  4.64585011E+00  7.88847056E-01 -7.90959542E-01  1.00234721E+00  2.26133539E-01  1.45053911E-01  2.30767686E+02  9.97681790E-01  1.00145827E+00
  7.00000000E-03  1.00000048E+00  1.29662590E-02 -3.12206758E-03  4.64557463E+00  7.88491109E-01 -7.90954727E-01  1.00342516E+00  2.72892877E-01  1.81586760E-01  2.17649065E+02  9.97569970E-01  1.00221105E+00
  8.00000000E-03  1.00000073E+00  1.47803470E-02 -3.55463665E-03  4.64530243E+00  7.88137884E-01 -7.90950050E-01  1.00456030E+00  3.19720437E-01  2.19291888E-01  2.05313343E+02  9.97557104E-01  1.00298712E+00
  9.00000000E-03  1.00000105E+00  1.65872016E-02 -3.98467538E-03  4.64503289E+00  7.87787293E-01 -7.90945485E-01  1.00583936E+00  3.63994288E-01  2.57742381E-01  1.93555422E+02  9.97667030E-01  1.00389861E+00
  1.00000000E-02  1.00000144E+00  1.83872652E-02 -4.41250268E-03  4.64483501E+00  7.87552960E-01 -7.90945342E-01  1.00716301E+00  4.10015843E-01  2.95742998E-01  1.82740533E+02  9.97961445E-01  1.00483947E+00
  1.10000000E-02  1.00000191E+00  2.01805884E-02 -4.83803723E-03  4.64463844E+00  7.87319814E-01 -7.90945109E-01  1.00861865E+00  4.52942720E-01  3.31408433E-01  1.72562540E+02  9.98348048E-01  1.00591582E+00
  1.20000000E-02  1.00000245E+00  2.19673277E-02 -5.26186134E-03  4.64444316E+00  7.87087740E-01 -7.90944763E-01  1.01006803E+00  4.96452351E-01  3.63289632E-01  1.63219592E+02  9.98806875E-01  1.00699803E+00
  1.30000000E-02  1.00000309E+00  2.37476470E-02 -5.68418019E-03  4.64424904E+00  7.86856672E-01 -7.90944284E-01  1.01164090E+00  5.37092684E-01  3.92561057E-01  1.54595934E+02  9.99330943E-01  1.00819532E+00
  1.40000000E-02  1.00000381E+00  2.55218157E-02 -6.10512455E-03  4.64405616E+00  7.86626556E-01 -7.90943657E-01  1.01322859E+00  5.78096182E-01  4.20444651E-01  1.47183829E+02  9.99912893E-01  1.00942724E+00
  1.50000000E-02  1.00000463E+00  2.72903674E-02 -6.52477732E-03  4.64386435E+00  7.86397348E-01 -7.90942876E-01  1.01491468E+00  6.14472526E-01  4.47757241E-01  1.40710308E+02  1.00057812E+00  1.01073033E+00
  1.60000000E-02  1.00000555E+00  2.90537632E-02 -6.94321980E-03  4.64367355E+00  7.86169008E-01 -7.90941935E-01  1.01667742E+00  6.51912119E-01  4.74788675E-01  1.35366339E+02  1.00133520E+00  1.01210568E+00
  1.70000000E-02  1.00000658E+00  3.08125981E-02 -7.36051141E-03  4.64348372E+00  7.85941505E-01 -7.90940828E-01  1.01849316E+00  6.84063069E-01  4.99843546E-01  1.30694543E+02  1.00217114E+00  1.01351368E+00
  1.80000000E-02  1.00000772E+00  3.25672762E-02 -7.77672586E-03  4.64329474E+00  7.85714810E-01 -7.90939547E-01  1.02041032E+00  7.17860513E-01  5.22339399E-01  1.26638765E+02  1.00309352E+00  1.01503776E+00
  1.90000000E-02  1.00000897E+00  3.43183461E-02 -8.19191607E-03  4.64310663E+00  7.85488896E-01 -7.90938090E-01  1.02232759E+00  7.46128703E-01  5.43716133E-01  1.22997709E+02  1.00409009E+00  1.01655420E+00
  2.00000000E-02  1.00001032E+00  3.60663384E-02 -8.60614063E-03  4.64291912E+00  7.85263741E-01 -7.90936448E-01  1.02435968E+00  7.76448243E-01  5.65355696E-01  1.19959293E+02  1.00514234E+00  1.01821281E+00
  2.10000000E-02  1.00001179E+00  3.78118156E-02 -9.01944000E-03  4.64273269E+00  7.85039325E-01 -7.90934615E-01  1.02635722E+00  8.02176015E-01  5.87260890E-01  1.17398694E+02  1.00624584E+00  1.01984743E+00
  2.20000000E-02  1.00001337E+00  3.95552492E-02 -9.43186629E-03  4.64254673E+00  7.84815629E-01 -7.90932587E-01  1.02846812E+00  8.28895723E-01  6.08416433E-01  1.15170906E+02  1.00740043E+00  1.02161356E+00
  2.30000000E-02  1.00001506E+00  4.12969408E-02 -9.84346843E-03  4.64236169E+00  7.84592634E-01 -7.90930360E-01  1.03053460E+00  8.53118214E-01  6.27332170E-01  1.13119007E+02  1.00859814E+00  1.02335342E+00
  2.40000000E-02  1.00001686E+00  4.30371599E-02 -1.02543008E-02  4.64217702E+00  7.84370323E-01 -7.90927928E-01  1.03268276E+00  8.76553076E-01  6.44837629E-01  1.11099505E+02  1.00984406E+00  1.02517443E+00
  2.50000000E-02  1.00001876E+00  4.47760534E-02 -1.06644224E-02  4.64199304E+00  7.84148680E-01 -7.90925285E-01  1.03482185E+00  8.99936478E-01  6.62272779E-01  1.09269247E+02  1.01112906E+00  1.02700013E+00
  2.60000000E-02  1.00002077E+00  4.65138258E-02 -1.10738783E-02  4.64180968E+00  7.83927690E-01 -7.90922434E-01  1.03696277E+00  9.20698056E-01  6.80041937E-01  1.07510741E+02  1.01243207E+00  1.02884254E+00
  2.70000000E-02  1.00002289E+00  4.82505250E-02 -1.14827213E-02  4.64162699E+00  7.83707341E-01 -7.90919370E-01  1.03912401E+00  9.42986829E-01  6.97745575E-01  1.05943441E+02  1.01372769E+00  1.03072729E+00
  2.80000000E-02  1.00002511E+00  4.99861989E-02 -1.18909852E-02  4.64144525E+00  7.83487619E-01 -7.90916101E-01  1.04126171E+00  9.62200232E-01  7.14513623E-01  1.04362790E+02  1.01501830E+00  1.03257542E+00
  2.90000000E-02  1.00002743E+00  5.17208103E-02 -1.22987261E-02  4.64126389E+00  7.83268515E-01 -7.90912631E-01  1.04343974E+00  9.82482366E-01  7.29781651E-01  1.02789078E+02  1.01631439E+00  1.03447354E+00
  3.00000000E-02  1.00002985E+00  5.34543179E-02 -1.27059863E-02  4.64108340E+00  7.83050016E-01 -7.90908968E-01  1.04557853E+00  1.00093475E+00  7.43776811E-01  1.01185699E+02  1.01762163E+00  1.03632062E+00
  3.10000000E-02  1.00003237E+00  5.51867167E-02 -1.31128153E-02  4.64090319E+00  7.82832110E-01 -7.90905117E-01  1.04772642E+00  1.01852521E+00  7.57132110E-01  9.95609315E+01  1.01893009E+00  1.03818716E+00
  3.20000000E-02  1.00003499E+00  5.69179564E-02 -1.35192506E-02  4.64072376E+00  7.82614789E-01 -7.90901076E-01  1.04984740E+00  1.03620098E+00  7.70432399E-01  9.80255006E+01  1.02022463E+00  1.04002090E+00
  3.30000000E-02  1.00003770E+00  5.86480431E-02 -1.39253123E-02  4.64054497E+00  7.82398040E-01 -7.90896851E-01  1.05192129E+00  1.05133696E+00  7.83330049E-01  9.64942713E+01  1.02148101E+00  1.04182782E+00
  3.40000000E-02  1.00004051E+00  6.03768960E-02 -1.43310346E-02  4.64036687E+00  7.82181855E-01 -7.90892447E-01  1.05400273E+00  1.06732617E+00  7.95370467E-01  9.50274513E+01  1.02269116E+00  1.04362515E+00
  3.50000000E-02  1.00004341E+00  6.21044819E-02 -1.47364263E-02  4.64018932E+00  7.81966222E-01 -7.90887870E-01  1.05603278E+00  1.08084205E+00  8.06227944E-01  9.35319693E+01  1.02387057E+00  1.04535634E+00
  3.60000000E-02  1.00004640E+00  6.38307469E-02 -1.51415302E-02  4.64001237E+00  7.81751132E-01 -7.90883127E-01  1.05808682E+00  1.09410177E+00  8.16201318E-01  9.20254305E+01  1.02503563E+00  1.04708094E+00
  3.70000000E-02  1.00004947E+00  6.55556571E-02 -1.55463641E-02  4.63983583E+00  7.81536576E-01 -7.90878221E-01  1.06010548E+00  1.10649282E+00  8.25481462E-01  9.05444474E+01  1.02618823E+00  1.04873905E+00
  3.80000000E-02  1.00005263E+00  6.72792252E-02 -1.59509556E-02  4.63966009E+00  7.81322547E-01 -7.90873158E-01  1.06209301E+00  1.11681841E+00  8.34427747E-01  8.90580488E+01  1.02732481E+00  1.05036405E+00
  3.90000000E-02  1.00005587E+00  6.90014283E-02 -1.63553186E-02  4.63948496E+00  7.81109035E-01 -7.90867940E-01  1.06405789E+00  1.12755165E+00  8.43129488E-01  8.76537752E+01  1.02842492E+00  1.05194993E+00
  4.00000000E-02  1.00005920E+00  7.07222805E-02 -1.67594567E-02  4.63931072E+00  7.80896034E-01 -7.90862570E-01  1.06594383E+00  1.13603667E+00  8.51027769E-01  8.62704908E+01  1.02947446E+00  1.05347628E+00
  4.10000000E-02  1.00006260E+00  7.24417599E-02 -1.71633873E-02  4.63913707E+00  7.80683535E-01 -7.90857054E-01  1.06782072E+00  1.14416926E+00  8.57971137E-01  8.49094388E+01  1.03047411E+00  1.05497633E+00
  4.20000000E-02  1.00006609E+00  7.41598649E-02 -1.75671113E-02  4.63896406E+00  7.80471533E-01 -7.90851394E-01  1.06966106E+00  1.15157151E+00  8.63987681E-01  8.35787498E+01  1.03143749E+00  1.05641352E+00
  4.30000000E-02  1.00006965E+00  7.58766198E-02 -1.79706444E-02  4.63879164E+00  7.80260020E-01 -7.90845593E-01  1.07147317E+00  1.15716449E+00  8.69422242E-01  8.22375509E+01  1.03237886E+00  1.05780696E+00
  4.40000000E-02  1.00007328E+00  7.75920463E-02 -1.83739880E-02  4.63861994E+00  7.80048991E-01 -7.90839651E-01  1.07328280E+00  1.16283866E+00  8.74419145E-01  8.09399056E+01  1.03330476E+00  1.05915984E+00
  4.50000000E-02  1.00007699E+00  7.93061987E-02 -1.87771474E-02  4.63844876E+00  7.79838438E-01 -7.90833567E-01  1.07503572E+00  1.16712401E+00  8.79127213E-01  7.96757883E+01  1.03421354E+00  1.06046206E+00
  4.60000000E-02  1.00008076E+00  8.10191312E-02 -1.91801196E-02  4.63827865E+00  7.79628357E-01 -7.90827341E-01  1.07675530E+00  1.17046144E+00  8.83580680E-01  7.84469110E+01  1.03508805E+00  1.06172537E+00
  4.70000000E-02  1.00008461E+00  8.27308832E-02 -1.95828992E-02  4.63810900E+00  7.79418740E-01 -7.90820977E-01  1.07843116E+00  1.17377618E+00  8.87411127E-01  7.72780630E+01  1.03591579E+00  1.06295733E+00
  4.80000000E-02  1.00008852E+00  8.44415034E-02 -1.99854723E-02  4.63803239E+00  7.79314548E-01 -7.90814404E-01  1.08004457E+00  1.17544718E+00  8.90423172E-01  7.61217752E+01  1.03688589E+00  1.06412383E+00
  4.90000000E-02  1.00009249E+00  8.61514572E-02 -2.03881791E-02  4.63794837E+00  7.79210476E-01 -7.90807701E-01  1.08165347E+00  1.17690562E+00  8.92795284E-01  7.49903716E+01  1.03780578E+00  1.06525803E+00
  5.00000000E-02  1.00009653E+00  8.78607839E-02 -2.07909850E-02  4.63786105E+00  7.79106528E-01 -7.90800867E-01  1.08323411E+00  1.17807486E+00  8.94690174E-01  7.38965429E+01  1.03869244E+00  1.06636142E+00
