 # time mean(w) mean(w**2)
  1.00000000E-03  1.00000002E+00  1.87657171E-03 -4.49477535E-04  4.64726133E+00  7.90643897E-01 -7.90986275E-01  1.00000209E+00  1.15932752E-02  4.39072072E-03  3.08749567E+02  9.99472464E-01  9.99990670E-01
  2.00000000E-03  1.00000009E+00  3.74207727E-03 -8.94126215E-04  4.64690542E+00  7.90253315E-01 -7.90986455E-01  1.00005736E+00  4.43470190E-02  1.94094455E-02  2.89534262E+02  9.98848050E-01  9.99957255E-01
  3.00000000E-03  1.00000021E+00  5.59441273E-03 -1.33525117E-03  4.64656026E+00  7.89871129E-01 -7.90986795E-01  1.00030476E+00  8.67667944E-02  4.50599233E-02  2.73417311E+02  9.98268996E-01  1.00009386E+00
  4.00000000E-03  1.00000035E+00  7.43476660E-03 -1.77326904E-03  4.64621967E+00  7.89491688E-01 -7.90987247E-01  1.00079087E+00  1.32350244E-01  7.74414692E-02  2.58782012E+02  9.97754286E-01  1.00042655E+00
  5.00000000E-03  1.00000053E+00  9.26486574E-03 -2.20850604E-03  4.64588064E+00  7.89112878E-01 -7.90987763E-01  1.00153559E+00  1.77937680E-01  1.11704299E-01  2.44643942E+02  9.97327024E-01  1.00094931E+00
  6.00000000E-03  1.00000072E+00  1.10861085E-02 -2.64116968E-03  4.64554146E+00  7.88733780E-01 -7.90988301E-01  1.00250430E+00  2.26075882E-01  1.47137267E-01  2.31003577E+02  9.97000215E-01  1.00162031E+00
  7.00000000E-03  1.00000092E+00  1.28991576E-02 -3.07142019E-03  4.64520284E+00  7.88353744E-01 -7.90988833E-01  1.00361316E+00  2.72943694E-01  1.83873744E-01  2.17718041E+02  9.96778435E-01  1.00238620E+00
  8.00000000E-03  1.00000113E+00  1.47044715E-02 -3.49937673E-03  4.64486437E+00  7.87972346E-01 -7.90989346E-01  1.00477886E+00  3.18290099E-01  2.21894873E-01  2.05190670E+02  9.96642434E-01  1.00318074E+00
  9.00000000E-03  1.00000132E+00  1.65022931E-02 -3.92518717E-03  4.64452357E+00  7.87589483E-01 -7.90989825E-01  1.00606557E+00  3.62734067E-01  2.60243280E-01  1.93280717E+02  9.96583080E-01  1.00409828E+00
  1.00000000E-02  1.00000150E+00  1.82928906E-02 -4.34895302E-03  4.64418137E+00  7.87205998E-01 -7.90990249E-01  1.00735993E+00  4.06718619E-01  2.97101442E-01  1.82286373E+02  9.96592130E-01  1.00501844E+00
  1.10000000E-02  1.00000166E+00  2.00764136E-02 -4.77077052E-03  4.64384024E+00  7.86822677E-01 -7.90990595E-01  1.00880796E+00  4.49948576E-01  3.30802612E-01  1.71907150E+02  9.96685295E-01  1.00608233E+00
  1.20000000E-02  1.00000180E+00  2.18528619E-02 -5.19073232E-03  4.64349977E+00  7.86439567E-01 -7.90990846E-01  1.01024794E+00  4.93273190E-01  3.61412758E-01  1.62365455E+02  9.96840567E-01  1.00715000E+00
  1.30000000E-02  1.00000191E+00  2.36223652E-02 -5.60891098E-03  4.64315871E+00  7.86056845E-01 -7.90990976E-01  1.01181099E+00  5.34454176E-01  3.89971000E-01  1.53630545E+02  9.97052609E-01  1.00834803E+00
  1.40000000E-02  1.00000199E+00  2.53852006E-02 -6.02536497E-03  4.64282012E+00  7.85675137E-01 -7.90990968E-01  1.01338315E+00  5.75317936E-01  4.17198442E-01  1.46116891E+02  9.97332225E-01  1.00955884E+00
  1.50000000E-02  1.00000203E+00  2.71417785E-02 -6.44014222E-03  4.64248473E+00  7.85294218E-01 -7.90990814E-01  1.01507896E+00  6.12365901E-01  4.43710784E-01  1.39590060E+02  9.97695245E-01  1.01087071E+00
  1.60000000E-02  1.00000204E+00  2.88925588E-02 -6.85330073E-03  4.64214937E+00  7.84913002E-01 -7.90990508E-01  1.01681901E+00  6.49371778E-01  4.69121141E-01  1.34172431E+02  9.98141190E-01  1.01222628E+00
  1.70000000E-02  1.00000202E+00  3.06380978E-02 -7.26488441E-03  4.64181344E+00  7.84532416E-01 -7.90990043E-01  1.01864112E+00  6.81762836E-01  4.92618196E-01  1.29444724E+02  9.98672135E-01  1.01364531E+00
  1.80000000E-02  1.00000195E+00  3.23789134E-02 -7.67494796E-03  4.64147794E+00  7.84152986E-01 -7.90989406E-01  1.02053671E+00  7.14872714E-01  5.14886281E-01  1.25422887E+02  9.99291962E-01  1.01514612E+00
  1.90000000E-02  1.00000185E+00  3.41156174E-02 -8.08353147E-03  4.64114383E+00  7.83774380E-01 -7.90988589E-01  1.02244387E+00  7.43303583E-01  5.36477023E-01  1.21919954E+02  9.99974943E-01  1.01666900E+00
  2.00000000E-02  1.00000171E+00  3.58487598E-02 -8.49068109E-03  4.64081113E+00  7.83396104E-01 -7.90987577E-01  1.02444199E+00  7.72738908E-01  5.57806259E-01  1.18996036E+02  1.00071678E+00  1.01830946E+00
  2.10000000E-02  1.00000152E+00  3.75788874E-02 -8.89643764E-03  4.64047921E+00  7.83018782E-01 -7.90986363E-01  1.02644232E+00  7.98127310E-01  5.79078902E-01  1.16490820E+02  1.00151684E+00  1.01993984E+00
  2.20000000E-02  1.00000130E+00  3.93064276E-02 -9.30085323E-03  4.64014719E+00  7.82642997E-01 -7.90984947E-01  1.02855104E+00  8.24210228E-01  5.99308374E-01  1.14268636E+02  1.00237726E+00  1.02168392E+00
  2.30000000E-02  1.00000103E+00  4.10316992E-02 -9.70397630E-03  4.63981494E+00  7.82268488E-01 -7.90983326E-01  1.03064593E+00  8.47811842E-01  6.18152308E-01  1.12202666E+02  1.00329912E+00  1.02343830E+00
  2.40000000E-02  1.00000075E+00  4.27605086E-02 -1.01084763E-02  4.63955890E+00  7.81963044E-01 -7.90973800E-01  1.03281228E+00  8.70937493E-01  6.36502338E-01  1.10226049E+02  1.00445891E+00  1.02524774E+00
  2.50000000E-02  1.00000046E+00  4.44866446E-02 -1.05157315E-02  4.63936372E+00  7.81729963E-01 -7.90971218E-01  1.03494640E+00  8.93510417E-01  6.54783259E-01  1.08445662E+02  1.00571782E+00  1.02707074E+00
  2.60000000E-02  1.00000018E+00  4.62093236E-02 -1.09188007E-02  4.63917312E+00  7.81500497E-01 -7.90968475E-01  1.03708956E+00  9.14296760E-01  6.72711479E-01  1.06733061E+02  1.00699110E+00  1.02892309E+00
  2.70000000E-02  9.99999901E-01  4.79298242E-02 -1.13199835E-02  4.63898443E+00  7.81274652E-01 -7.90965510E-01  1.03924886E+00  9.36025661E-01  6.89985196E-01  1.05159987E+02  1.00827321E+00  1.03080533E+00
  2.80000000E-02  9.99999611E-01  4.96485519E-02 -1.17198711E-02  4.63879715E+00  7.81051673E-01 -7.90962320E-01  1.04139626E+00  9.55083069E-01  7.06020470E-01  1.03541905E+02  1.00956670E+00  1.03266539E+00
  2.90000000E-02  9.99999310E-01  5.13656467E-02 -1.21187553E-02  4.63861074E+00  7.80830982E-01 -7.90958898E-01  1.04358109E+00  9.75129697E-01  7.21029838E-01  1.01945413E+02  1.01087238E+00  1.03456409E+00
  3.00000000E-02  9.99999002E-01  5.30811942E-02 -1.25168364E-02  4.63842539E+00  7.80611996E-01 -7.90955255E-01  1.04574208E+00  9.93273500E-01  7.35565820E-01  1.00338751E+02  1.01218738E+00  1.03641866E+00
  3.10000000E-02  9.99998688E-01  5.47952814E-02 -1.29142275E-02  4.63824048E+00  7.80394207E-01 -7.90951396E-01  1.04790391E+00  1.01112149E+00  7.49779294E-01  9.87564952E+01  1.01350052E+00  1.03829227E+00
  3.20000000E-02  9.99998364E-01  5.65078741E-02 -1.33109934E-02  4.63805636E+00  7.80177361E-01 -7.90947331E-01  1.05003081E+00  1.02852420E+00  7.63630151E-01  9.72456249E+01  1.01478923E+00  1.04012600E+00
  3.30000000E-02  9.99998031E-01  5.82189783E-02 -1.37072005E-02  4.63787251E+00  7.79961359E-01 -7.90943071E-01  1.05212704E+00  1.04401376E+00  7.76631229E-01  9.57272493E+01  1.01604192E+00  1.04194192E+00
  3.40000000E-02  9.99997688E-01  5.99285408E-02 -1.41029130E-02  4.63768914E+00  7.79746141E-01 -7.90938618E-01  1.05422488E+00  1.05998011E+00  7.88453387E-01  9.42455381E+01  1.01725828E+00  1.04373600E+00
  3.50000000E-02  9.99997335E-01  6.16365483E-02 -1.44981713E-02  4.63750596E+00  7.79531662E-01 -7.90933986E-01  1.05627936E+00  1.07347525E+00  7.99066536E-01  9.27205939E+01  1.01844819E+00  1.04547243E+00
  3.60000000E-02  9.99996972E-01  6.33429787E-02 -1.48930307E-02  4.63732313E+00  7.79317884E-01 -7.90929181E-01  1.05834331E+00  1.08700072E+00  8.08973924E-01  9.12088251E+01  1.01961840E+00  1.04719536E+00
  3.70000000E-02  9.99996601E-01  6.50478158E-02 -1.52875207E-02  4.63714054E+00  7.79104775E-01 -7.90924210E-01  1.06035696E+00  1.09906117E+00  8.18308368E-01  8.97193048E+01  1.02076438E+00  1.04885257E+00
  3.80000000E-02  9.99996223E-01  6.67510774E-02 -1.56816715E-02  4.63695863E+00  7.78892309E-01 -7.90919081E-01  1.06232934E+00  1.10959503E+00  8.27126532E-01  8.82420047E+01  1.02187873E+00  1.05047488E+00
  3.90000000E-02  9.99995837E-01  6.84527460E-02 -1.60755067E-02  4.63677726E+00  7.78680464E-01 -7.90913795E-01  1.06426606E+00  1.12007390E+00  8.35399470E-01  8.68355720E+01  1.02295007E+00  1.05205028E+00
  4.00000000E-02  9.99995446E-01  7.01528386E-02 -1.64690452E-02  4.63659652E+00  7.78469220E-01 -7.90908367E-01  1.06614200E+00  1.12833660E+00  8.42725862E-01  8.54335211E+01  1.02397417E+00  1.05357008E+00
  4.10000000E-02  9.99995051E-01  7.18513590E-02 -1.68623122E-02  4.63641623E+00  7.78258560E-01 -7.90902797E-01  1.06800834E+00  1.13637375E+00  8.49131906E-01  8.40557658E+01  1.02495634E+00  1.05505569E+00
  4.20000000E-02  9.99994653E-01  7.35483206E-02 -1.72553166E-02  4.63623631E+00  7.78048469E-01 -7.90897092E-01  1.06983290E+00  1.14322063E+00  8.54683867E-01  8.26992912E+01  1.02590839E+00  1.05647947E+00
  4.30000000E-02  9.99994252E-01  7.52437660E-02 -1.76480703E-02  4.63605708E+00  7.77838934E-01 -7.90891259E-01  1.07162663E+00  1.14862863E+00  8.59744551E-01  8.13462557E+01  1.02683663E+00  1.05786130E+00
  4.40000000E-02  9.99993850E-01  7.69377214E-02 -1.80405839E-02  4.63587838E+00  7.77629943E-01 -7.90885297E-01  1.07339785E+00  1.15395725E+00  8.64429894E-01  8.00478397E+01  1.02773992E+00  1.05919962E+00
  4.50000000E-02  9.99993447E-01  7.86302378E-02 -1.84328537E-02  4.63570046E+00  7.77421486E-01 -7.90879212E-01  1.07510093E+00  1.15763296E+00  8.68717262E-01  7.87772749E+01  1.02861397E+00  1.06048452E+00
  4.60000000E-02  9.99993045E-01  8.03213700E-02 -1.88248863E-02  4.63552327E+00  7.77213552E-01 -7.90873001E-01  1.07677498E+00  1.16079276E+00  8.72559399E-01  7.75486679E+01  1.02944948E+00  1.06173706E+00
  4.70000000E-02  9.99992643E-01  8.20111544E-02 -1.92166682E-02  4.63534670E+00  7.77006133E-01 -7.90866670E-01  1.07840038E+00  1.16351753E+00  8.75742258E-01  7.63713090E+01  1.03024240E+00  1.06294378E+00
  4.80000000E-02  9.99992243E-01  8.36996532E-02 -1.96082016E-02  4.63517095E+00  7.76799221E-01 -7.90860221E-01  1.07998015E+00  1.16462688E+00  8.78218961E-01  7.51992096E+01  1.03099892E+00  1.06410134E+00
  4.90000000E-02  9.99991844E-01  8.53869272E-02 -1.99994721E-02  4.63508725E+00  7.76696258E-01 -7.90853625E-01  1.08155671E+00  1.16593226E+00  8.80218348E-01  7.40659367E+01  1.03191582E+00  1.06522175E+00
  5.00000000E-02  9.99991447E-01  8.70734246E-02 -2.03908001E-02  4.63499526E+00  7.76593508E-01 -7.90846910E-01  1.08309353E+00  1.16635572E+00  8.81782819E-01  7.29629178E+01  1.03280125E+00  1.06630050E+00
