 # time mean(w) mean(w**2)
  1.00000000E-03  1.00000002E+00  1.87657171E-03 -4.49477535E-04  4.64728050E+00  7.90664284E-01 -7.90986665E-01  1.00000209E+00  1.15932752E-02  4.39072072E-03  3.08749662E+02  9.99503468E-01  9.99997948E-01
  2.00000000E-03  1.00000009E+00  3.74245258E-03 -8.94220783E-04  4.64689357E+00  7.90200748E-01 -7.90983653E-01  1.00005736E+00  4.43470194E-02  1.94094453E-02  2.89534193E+02  9.98824254E-01  9.99993792E-01
  3.00000000E-03  1.00000022E+00  5.59518267E-03 -1.33432303E-03  4.64661051E+00  7.89824045E-01 -7.90977968E-01  1.00030479E+00  8.67667984E-02  4.50599192E-02  2.73417536E+02  9.98371909E-01  1.00012855E+00
  4.00000000E-03  1.00000041E+00  7.43548448E-03 -1.77042316E-03  4.64633293E+00  7.89452482E-01 -7.90972702E-01  1.00079098E+00  1.32350224E-01  7.74414479E-02  2.58782524E+02  9.97985197E-01  1.00046022E+00
  5.00000000E-03  1.00000065E+00  9.26535892E-03 -2.20311433E-03  4.64605927E+00  7.89085310E-01 -7.90967768E-01  1.00153584E+00  1.77937397E-01  1.11704269E-01  2.44644754E+02  9.97689900E-01  1.00098308E+00
  6.00000000E-03  1.00000095E+00  1.10863279E-02 -2.63275446E-03  4.64578825E+00  7.88722017E-01 -7.90963093E-01  1.00250476E+00  2.26075550E-01  1.47137534E-01  2.31004767E+02  9.97499337E-01  1.00165520E+00
  7.00000000E-03  1.00000130E+00  1.28991329E-02 -3.05960914E-03  4.64552009E+00  7.88362282E-01 -7.90958628E-01  1.00361391E+00  2.72945528E-01  1.83874838E-01  2.17719637E+02  9.97418080E-01  1.00242018E+00
  8.00000000E-03  1.00000169E+00  1.47042912E-02 -3.48388588E-03  4.64525488E+00  7.88005883E-01 -7.90954343E-01  1.00478001E+00  3.18295386E-01  2.21898093E-01  2.05192598E+02  9.97429225E-01  1.00321149E+00
  9.00000000E-03  1.00000214E+00  1.65020965E-02 -3.90582034E-03  4.64499204E+00  7.87652599E-01 -7.90950211E-01  1.00606727E+00  3.62738517E-01  2.60248486E-01  1.93282924E+02  9.97526141E-01  1.00412853E+00
  1.00000000E-02  1.00000262E+00  1.82928624E-02 -4.32553128E-03  4.64473176E+00  7.87302263E-01 -7.90946206E-01  1.00736242E+00  4.06720713E-01  2.97108225E-01  1.82289270E+02  9.97723828E-01  1.00505980E+00
  1.10000000E-02  1.00000314E+00  2.00774892E-02 -4.74464563E-03  4.64454230E+00  7.87068489E-01 -7.90946587E-01  1.00881135E+00  4.49953443E-01  3.30810146E-01  1.71911027E+02  9.98104385E-01  1.00613940E+00
  1.20000000E-02  1.00000369E+00  2.18553313E-02 -5.16191836E-03  4.64435417E+00  7.86836190E-01 -7.90946877E-01  1.01025220E+00  4.93279778E-01  3.61421021E-01  1.62370110E+02  9.98549877E-01  1.00722382E+00
  1.30000000E-02  1.00000427E+00  2.36266735E-02 -5.57780268E-03  4.64416675E+00  7.86605107E-01 -7.90947037E-01  1.01181617E+00  5.34463023E-01  3.89978053E-01  1.53636049E+02  9.99054295E-01  1.00844094E+00
  1.40000000E-02  1.00000487E+00  2.53918182E-02 -5.99242194E-03  4.64398012E+00  7.86375069E-01 -7.90947047E-01  1.01338922E+00  5.75320228E-01  4.17202737E-01  1.46122961E+02  9.99621160E-01  1.00967196E+00
  1.50000000E-02  1.00000549E+00  2.71511834E-02 -6.40584634E-03  4.64379402E+00  7.86146009E-01 -7.90946898E-01  1.01508589E+00  6.12352602E-01  4.43711669E-01  1.39596087E+02  1.00026847E+00  1.01100123E+00
  1.60000000E-02  1.00000612E+00  2.89052324E-02 -6.81814591E-03  4.64360855E+00  7.85917877E-01 -7.90946578E-01  1.01682698E+00  6.49352257E-01  4.69124964E-01  1.34178702E+02  1.00100176E+00  1.01237366E+00
  1.70000000E-02  1.00000676E+00  3.06545227E-02 -7.22937277E-03  4.64342353E+00  7.85690627E-01 -7.90946078E-01  1.01865033E+00  6.81754470E-01  4.92622660E-01  1.29451810E+02  1.00182141E+00  1.01381108E+00
  1.80000000E-02  1.00000741E+00  3.23995722E-02 -7.63958674E-03  4.64323898E+00  7.85464225E-01 -7.90945384E-01  1.02054717E+00  7.14876199E-01  5.14886594E-01  1.25431151E+02  1.00272973E+00  1.01533089E+00
  1.90000000E-02  1.00000806E+00  3.41409923E-02 -8.04882772E-03  4.64305484E+00  7.85238638E-01 -7.90944489E-01  1.02245555E+00  7.43295916E-01  5.36467694E-01  1.21928552E+02  1.00369696E+00  1.01687268E+00
  2.00000000E-02  1.00000871E+00  3.58793301E-02 -8.45714018E-03  4.64287105E+00  7.85013841E-01 -7.90943376E-01  1.02445520E+00  7.72721397E-01  5.57794019E-01  1.19004998E+02  1.00472038E+00  1.01853175E+00
  2.10000000E-02  1.00000937E+00  3.76151277E-02 -8.86456536E-03  4.64268764E+00  7.84789808E-01 -7.90942037E-01  1.02645755E+00  7.98108919E-01  5.79068328E-01  1.16500300E+02  1.00580047E+00  1.02017963E+00
  2.20000000E-02  1.00001003E+00  3.93488108E-02 -9.27115275E-03  4.64250410E+00  7.84566519E-01 -7.90940473E-01  1.02856831E+00  8.24189297E-01  5.99305355E-01  1.14278716E+02  1.00694140E+00  1.02194281E+00
  2.30000000E-02  1.00001068E+00  4.10806959E-02 -9.67694865E-03  4.64232065E+00  7.84343953E-01 -7.90938682E-01  1.03066524E+00  8.47791862E-01  6.18156237E-01  1.12213850E+02  1.00813687E+00  1.02368704E+00
  2.40000000E-02  1.00001133E+00  4.28110499E-02 -1.00820047E-02  4.64213690E+00  7.84122093E-01 -7.90936666E-01  1.03283371E+00  8.70924229E-01  6.36510425E-01  1.10237975E+02  1.00938579E+00  1.02551208E+00
  2.50000000E-02  1.00001198E+00  4.45400280E-02 -1.04863663E-02  4.64195345E+00  7.83900921E-01 -7.90934418E-01  1.03496996E+00  8.93499412E-01  6.54796190E-01  1.08457866E+02  1.01066235E+00  1.02733593E+00
  2.60000000E-02  1.00001262E+00  4.62677756E-02 -1.08900764E-02  4.64177011E+00  7.83680424E-01 -7.90931937E-01  1.03711526E+00  9.14287270E-01  6.72728822E-01  1.06745462E+02  1.01194499E+00  1.02919037E+00
  2.70000000E-02  1.00001326E+00  4.79943066E-02 -1.12931819E-02  4.64158714E+00  7.83460586E-01 -7.90929218E-01  1.03927656E+00  9.36017673E-01  6.90004967E-01  1.05172703E+02  1.01323219E+00  1.03107523E+00
  2.80000000E-02  1.00001389E+00  4.97196489E-02 -1.16957261E-02  4.64140439E+00  7.83241395E-01 -7.90926268E-01  1.04142591E+00  9.55076149E-01  7.06043110E-01  1.03554869E+02  1.01452753E+00  1.03293797E+00
  2.90000000E-02  1.00001451E+00  5.14437694E-02 -1.20977559E-02  4.64122156E+00  7.83022838E-01 -7.90923087E-01  1.04361265E+00  9.75125373E-01  7.21054494E-01  1.01958560E+02  1.01583269E+00  1.03483935E+00
  3.00000000E-02  1.00001513E+00  5.31666384E-02 -1.24993128E-02  4.64103904E+00  7.82804905E-01 -7.90919688E-01  1.04577546E+00  9.93272456E-01  7.35592611E-01  1.00351999E+02  1.01714532E+00  1.03669679E+00
  3.10000000E-02  1.00001574E+00  5.48882441E-02 -1.29004360E-02  4.64085653E+00  7.82587583E-01 -7.90916078E-01  1.04793910E+00  1.01112599E+00  7.49809041E-01  9.87698132E+01  1.01845508E+00  1.03857336E+00
  3.20000000E-02  1.00001634E+00  5.66085286E-02 -1.33011606E-02  4.64067460E+00  7.82370864E-01 -7.90912265E-01  1.05006790E+00  1.02853437E+00  7.63663066E-01  9.72590001E+01  1.01973978E+00  1.04041001E+00
  3.30000000E-02  1.00001694E+00  5.83274746E-02 -1.37015143E-02  4.64049280E+00  7.82154737E-01 -7.90908259E-01  1.05216586E+00  1.04402759E+00  7.76666523E-01  9.57407602E+01  1.02098794E+00  1.04222907E+00
  3.40000000E-02  1.00001752E+00  6.00450054E-02 -1.41015321E-02  4.64031135E+00  7.81939193E-01 -7.90904065E-01  1.05426541E+00  1.05999551E+00  7.88488706E-01  9.42591075E+01  1.02219933E+00  1.04402591E+00
  3.50000000E-02  1.00001810E+00  6.17610873E-02 -1.45012308E-02  4.64012999E+00  7.81724223E-01 -7.90899696E-01  1.05632146E+00  1.07349050E+00  7.99098594E-01  9.27340658E+01  1.02338407E+00  1.04576522E+00
  3.60000000E-02  1.00001867E+00  6.34756819E-02 -1.49006453E-02  4.63994886E+00  7.81509818E-01 -7.90895155E-01  1.05838709E+00  1.08701838E+00  8.09003735E-01  9.12221992E+01  1.02454904E+00  1.04749083E+00
  3.70000000E-02  1.00001922E+00  6.51887573E-02 -1.52997899E-02  4.63976789E+00  7.81295971E-01 -7.90890449E-01  1.06040246E+00  1.09908383E+00  8.18337663E-01  8.97326830E+01  1.02568986E+00  1.04915090E+00
  3.80000000E-02  1.00001977E+00  6.69003176E-02 -1.56986824E-02  4.63958752E+00  7.81082674E-01 -7.90885588E-01  1.06237658E+00  1.10962221E+00  8.27157406E-01  8.82554360E+01  1.02679892E+00  1.05077587E+00
  3.90000000E-02  1.00002031E+00  6.86103342E-02 -1.60973354E-02  4.63940762E+00  7.80869920E-01 -7.90880571E-01  1.06431503E+00  1.12010816E+00  8.35432029E-01  8.68491265E+01  1.02786498E+00  1.05235398E+00
  4.00000000E-02  1.00002084E+00  7.03188142E-02 -1.64957575E-02  4.63922827E+00  7.80657700E-01 -7.90875412E-01  1.06619256E+00  1.12837678E+00  8.42758889E-01  8.54471727E+01  1.02888370E+00  1.05387636E+00
  4.10000000E-02  1.00002136E+00  7.20257522E-02 -1.68939658E-02  4.63904931E+00  7.80446009E-01 -7.90870111E-01  1.06806044E+00  1.13642045E+00  8.49163033E-01  8.40694521E+01  1.02986045E+00  1.05536454E+00
  4.20000000E-02  1.00002187E+00  7.37311524E-02 -1.72919627E-02  4.63887065E+00  7.80234841E-01 -7.90864675E-01  1.06988650E+00  1.14327313E+00  8.54712536E-01  8.27129860E+01  1.03080703E+00  1.05679075E+00
  4.30000000E-02  1.00002237E+00  7.54350496E-02 -1.76897543E-02  4.63869259E+00  7.80024187E-01 -7.90859110E-01  1.07168164E+00  1.14868760E+00  8.59769955E-01  8.13599351E+01  1.03172978E+00  1.05817508E+00
  4.40000000E-02  1.00002286E+00  7.71374640E-02 -1.80873449E-02  4.63851500E+00  7.79814043E-01 -7.90853413E-01  1.07345428E+00  1.15402306E+00  8.64453235E-01  8.00615500E+01  1.03262756E+00  1.05951580E+00
  4.50000000E-02  1.00002334E+00  7.88384407E-02 -1.84847259E-02  4.63833811E+00  7.79604402E-01 -7.90847590E-01  1.07515866E+00  1.15770358E+00  8.68738048E-01  7.87909645E+01  1.03349604E+00  1.06080293E+00
  4.60000000E-02  1.00002381E+00  8.05380289E-02 -1.88819000E-02  4.63816187E+00  7.79395259E-01 -7.90841636E-01  1.07683407E+00  1.16087276E+00  8.72578251E-01  7.75624524E+01  1.03432603E+00  1.06205790E+00
  4.70000000E-02  1.00002426E+00  8.22362599E-02 -1.92788504E-02  4.63798620E+00  7.79186609E-01 -7.90835560E-01  1.07846071E+00  1.16360519E+00  8.75758200E-01  7.63851489E+01  1.03511338E+00  1.06326685E+00
  4.80000000E-02  1.00002470E+00  8.39331913E-02 -1.96755756E-02  4.63781126E+00  7.78978445E-01 -7.90829362E-01  1.08004170E+00  1.16472227E+00  8.78231640E-01  7.52130789E+01  1.03586434E+00  1.06442662E+00
  4.90000000E-02  1.00002512E+00  8.56288798E-02 -2.00720589E-02  4.63772881E+00  7.78874948E-01 -7.90822933E-01  1.08161945E+00  1.16603765E+00  8.80227055E-01  7.40798452E+01  1.03677822E+00  1.06554783E+00
  5.00000000E-02  1.00002553E+00  8.73237700E-02 -2.04686077E-02  4.63763800E+00  7.78771653E-01 -7.90816383E-01  1.08315732E+00  1.16646769E+00  8.81787256E-01  7.29767954E+01  1.03766058E+00  1.06662714E+00
