 # time mean(w) mean(w**2)
  1.00000000E-03  9.99998469E-01  1.89152137E-03 -4.52093084E-04  4.64749006E+00  7.90885849E-01 -7.90988037E-01  1.00007352E+00  1.29404230E-02  5.05082351E-03  3.08234973E+02  9.99881274E-01  1.00017133E+00
  2.00000000E-03  9.99995860E-01  3.77174733E-03 -8.99044571E-04  4.64746959E+00  7.90786471E-01 -7.90986217E-01  1.00026312E+00  4.66234301E-02  2.17655570E-02  2.89344350E+02  9.99750538E-01  1.00044366E+00
  3.00000000E-03  9.99991097E-01  5.64310507E-03 -1.34272297E-03  4.64744836E+00  7.90686806E-01 -7.90984206E-01  1.00065505E+00  8.91543012E-02  4.86638086E-02  2.73798948E+02  9.99670291E-01  1.00089097E+00
  4.00000000E-03  9.99984725E-01  7.50375384E-03 -1.78365306E-03  4.64742081E+00  7.90583525E-01 -7.90982086E-01  1.00132824E+00  1.37413084E-01  8.14418765E-02  2.59507672E+02  9.99643406E-01  1.00158952E+00
  5.00000000E-03  9.99977755E-01  9.35509042E-03 -2.22263390E-03  4.64742386E+00  7.90489759E-01 -7.90980486E-01  1.00225108E+00  1.86490948E-01  1.16121448E-01  2.45607665E+02  9.99737105E-01  1.00252476E+00
  6.00000000E-03  9.99971278E-01  1.11951022E-02 -2.65898924E-03  4.64742891E+00  7.90416722E-01 -7.90976696E-01  1.00339577E+00  2.39619213E-01  1.51770280E-01  2.32152594E+02  9.99976418E-01  1.00360374E+00
  7.00000000E-03  9.99964211E-01  1.30255641E-02 -3.09293175E-03  4.64743096E+00  7.90341867E-01 -7.90972948E-01  1.00457392E+00  2.88310999E-01  1.88473143E-01  2.18894390E+02  1.00032726E+00  1.00472217E+00
  8.00000000E-03  9.99956651E-01  1.48475452E-02 -3.52484418E-03  4.64742829E+00  7.90262783E-01 -7.90969038E-01  1.00578797E+00  3.35165063E-01  2.26508653E-01  2.06380127E+02  1.00077603E+00  1.00579051E+00
  9.00000000E-03  9.99948823E-01  1.66610008E-02 -3.95525477E-03  4.64741979E+00  7.90177611E-01 -7.90964904E-01  1.00718093E+00  3.79882672E-01  2.65977915E-01  1.94289739E+02  1.00131839E+00  1.00699929E+00
  1.00000000E-02  9.99940792E-01  1.84671689E-02 -4.38373648E-03  4.64740976E+00  7.90089337E-01 -7.90960623E-01  1.00863133E+00  4.26194382E-01  3.05907898E-01  1.83221911E+02  1.00194604E+00  1.00824528E+00
  1.10000000E-02  9.99932485E-01  2.02660313E-02 -4.81037204E-03  4.64740184E+00  7.90002017E-01 -7.90956184E-01  1.01015106E+00  4.68248348E-01  3.43642824E-01  1.72764829E+02  1.00265618E+00  1.00962360E+00
  1.20000000E-02  9.99923836E-01  2.20581182E-02 -5.23532026E-03  4.64739275E+00  7.89916988E-01 -7.90951473E-01  1.01165403E+00  5.10300523E-01  3.77501853E-01  1.63214491E+02  1.00343952E+00  1.01097173E+00
  1.30000000E-02  9.99914848E-01  2.38434557E-02 -5.65867748E-03  4.64738022E+00  7.89833257E-01 -7.90946491E-01  1.01327200E+00  5.50148833E-01  4.08232214E-01  1.54359489E+02  1.00428385E+00  1.01244464E+00
  1.40000000E-02  9.99905513E-01  2.56224738E-02 -6.08049423E-03  4.64736920E+00  7.89749579E-01 -7.90941223E-01  1.01485460E+00  5.88787582E-01  4.37151079E-01  1.46792229E+02  1.00519940E+00  1.01391799E+00
  1.50000000E-02  9.99895842E-01  2.73957229E-02 -6.50076914E-03  4.64736171E+00  7.89665108E-01 -7.90935755E-01  1.01658133E+00  6.24637556E-01  4.65398408E-01  1.40202851E+02  1.00619859E+00  1.01550763E+00
  1.60000000E-02  9.99885852E-01  2.91637382E-02 -6.91963120E-03  4.64735465E+00  7.89580005E-01 -7.90930175E-01  1.01835039E+00  6.60282122E-01  4.93393594E-01  1.34837673E+02  1.00728542E+00  1.01713948E+00
  1.70000000E-02  9.99875549E-01  3.09272027E-02 -7.33720972E-03  4.64734388E+00  7.89494361E-01 -7.90924427E-01  1.02022565E+00  6.91759366E-01  5.19913549E-01  1.30161566E+02  1.00844956E+00  1.01885434E+00
  1.80000000E-02  9.99865224E-01  3.26865116E-02 -7.75394912E-03  4.64735987E+00  7.89435856E-01 -7.90916200E-01  1.02217338E+00  7.24392730E-01  5.43916884E-01  1.26192210E+02  1.00975221E+00  1.02065609E+00
  1.90000000E-02  9.99855319E-01  3.44391414E-02 -8.16927969E-03  4.64737791E+00  7.89404255E-01 -7.90913285E-01  1.02417537E+00  7.52230474E-01  5.66830570E-01  1.22609475E+02  1.01113004E+00  1.02248234E+00
  2.00000000E-02  9.99845279E-01  3.61879000E-02 -8.58156877E-03  4.64739612E+00  7.89373878E-01 -7.90910212E-01  1.02621108E+00  7.82404145E-01  5.89315456E-01  1.19723055E+02  1.01255606E+00  1.02443435E+00
  2.10000000E-02  9.99835124E-01  3.79329073E-02 -8.99294166E-03  4.64741437E+00  7.89345058E-01 -7.90906967E-01  1.02820961E+00  8.07140673E-01  6.11186764E-01  1.17212215E+02  1.01401045E+00  1.02636937E+00
  2.20000000E-02  9.99824889E-01  3.96763732E-02 -9.40170411E-03  4.64743193E+00  7.89317411E-01 -7.90903592E-01  1.03031235E+00  8.34769087E-01  6.32036846E-01  1.15122143E+02  1.01549883E+00  1.02843090E+00
  2.30000000E-02  9.99814571E-01  4.14184284E-02 -9.80854589E-03  4.64744929E+00  7.89290640E-01 -7.90900086E-01  1.03236708E+00  8.57981409E-01  6.50660495E-01  1.13111675E+02  1.01702011E+00  1.03046089E+00
  2.40000000E-02  9.99804174E-01  4.31590811E-02 -1.02140490E-02  4.64746575E+00  7.89264528E-01 -7.90896447E-01  1.03451943E+00  8.82642067E-01  6.67822253E-01  1.11176197E+02  1.01858393E+00  1.03258804E+00
  2.50000000E-02  9.99793704E-01  4.48985084E-02 -1.06182690E-02  4.64748200E+00  7.89238922E-01 -7.90892684E-01  1.03664033E+00  9.05134643E-01  6.85080594E-01  1.09356263E+02  1.02018883E+00  1.03469364E+00
  2.60000000E-02  9.99783160E-01  4.66369763E-02 -1.10214425E-02  4.64749767E+00  7.89213711E-01 -7.90888803E-01  1.03880395E+00  9.26897913E-01  7.02989818E-01  1.07636164E+02  1.02181690E+00  1.03684096E+00
  2.70000000E-02  9.99772551E-01  4.83743846E-02 -1.14240060E-02  4.64751327E+00  7.89188774E-01 -7.90884801E-01  1.04095842E+00  9.49043145E-01  7.20982354E-01  1.06094241E+02  1.02344419E+00  1.03900229E+00
  2.80000000E-02  9.99761886E-01  5.01109026E-02 -1.18257848E-02  4.64752871E+00  7.89164009E-01 -7.90880693E-01  1.04310485E+00  9.68539815E-01  7.37887918E-01  1.04517237E+02  1.02506858E+00  1.04114667E+00
  2.90000000E-02  9.99751169E-01  5.18463777E-02 -1.22268922E-02  4.64754346E+00  7.89139376E-01 -7.90876480E-01  1.04528578E+00  9.89627485E-01  7.53249159E-01  1.02969160E+02  1.02670141E+00  1.04333051E+00
  3.00000000E-02  9.99740401E-01  5.35807534E-02 -1.26274578E-02  4.64755787E+00  7.89114862E-01 -7.90872167E-01  1.04741856E+00  1.00789215E+00  7.67210782E-01  1.01342450E+02  1.02833657E+00  1.04545642E+00
  3.10000000E-02  9.99729587E-01  5.53140062E-02 -1.30274751E-02  4.64757109E+00  7.89090460E-01 -7.90867751E-01  1.04957628E+00  1.02664723E+00  7.80568616E-01  9.97276323E+01  1.02996998E+00  1.04760421E+00
  3.20000000E-02  9.99718728E-01  5.70460594E-02 -1.34271156E-02  4.64758406E+00  7.89066167E-01 -7.90863226E-01  1.05168786E+00  1.04418584E+00  7.93978424E-01  9.81739632E+01  1.03159204E+00  1.04970038E+00
  3.30000000E-02  9.99707826E-01  5.87769782E-02 -1.38263029E-02  4.64759619E+00  7.89041975E-01 -7.90858590E-01  1.05377420E+00  1.06000194E+00  8.07057384E-01  9.66338281E+01  1.03317715E+00  1.05176927E+00
  3.40000000E-02  9.99696877E-01  6.05065784E-02 -1.42251273E-02  4.64760783E+00  7.89017882E-01 -7.90853841E-01  1.05585610E+00  1.07643738E+00  8.19228539E-01  9.51661635E+01  1.03472050E+00  1.05381749E+00
  3.50000000E-02  9.99685881E-01  6.22349005E-02 -1.46234990E-02  4.64761870E+00  7.88993883E-01 -7.90848983E-01  1.05789105E+00  1.08999723E+00  8.30099865E-01  9.36420880E+01  1.03623032E+00  1.05578650E+00
  3.60000000E-02  9.99674833E-01  6.39619191E-02 -1.50213933E-02  4.64762886E+00  7.88969975E-01 -7.90844018E-01  1.05995444E+00  1.10410903E+00  8.40059339E-01  9.21344120E+01  1.03771998E+00  1.05775376E+00
  3.70000000E-02  9.99663732E-01  6.56875635E-02 -1.54188847E-02  4.64763833E+00  7.88946155E-01 -7.90838942E-01  1.06195888E+00  1.11625852E+00  8.49242747E-01  9.06291858E+01  1.03918902E+00  1.05963039E+00
  3.80000000E-02  9.99652570E-01  6.74118225E-02 -1.58160951E-02  4.64764777E+00  7.88922422E-01 -7.90833753E-01  1.06394754E+00  1.12712475E+00  8.58028068E-01  8.91299151E+01  1.04063335E+00  1.06147712E+00
  3.90000000E-02  9.99641342E-01  6.91347270E-02 -1.62129947E-02  4.64765682E+00  7.88898773E-01 -7.90828443E-01  1.06589832E+00  1.13812639E+00  8.66533348E-01  8.77218014E+01  1.04203849E+00  1.06327056E+00
  4.00000000E-02  9.99630044E-01  7.08562738E-02 -1.66095048E-02  4.64766609E+00  7.88875205E-01 -7.90823013E-01  1.06776672E+00  1.14638094E+00  8.74104964E-01  8.63118387E+01  1.04339143E+00  1.06499258E+00
  4.10000000E-02  9.99618673E-01  7.25764547E-02 -1.70057154E-02  4.64767514E+00  7.88851717E-01 -7.90817455E-01  1.06963542E+00  1.15510348E+00  8.80710641E-01  8.49516453E+01  1.04469486E+00  1.06669081E+00
  4.20000000E-02  9.99607226E-01  7.42952481E-02 -1.74016375E-02  4.64768412E+00  7.88828309E-01 -7.90811767E-01  1.07144611E+00  1.16213651E+00  8.86303619E-01  8.36005050E+01  1.04595846E+00  1.06830993E+00
  4.30000000E-02  9.99595698E-01  7.60127173E-02 -1.77971694E-02  4.64769309E+00  7.88804977E-01 -7.90805946E-01  1.07324130E+00  1.16782327E+00  8.91315147E-01  8.22457103E+01  1.04719434E+00  1.06988904E+00
  4.40000000E-02  9.99584084E-01  7.77288127E-02 -1.81925534E-02  4.64770191E+00  7.88781723E-01 -7.90799982E-01  1.07502098E+00  1.17376587E+00  8.95877281E-01  8.09506432E+01  1.04840840E+00  1.07142312E+00
  4.50000000E-02  9.99572383E-01  7.94436582E-02 -1.85875432E-02  4.64771087E+00  7.88758544E-01 -7.90793873E-01  1.07673337E+00  1.17748459E+00  9.00156844E-01  7.96686650E+01  1.04959924E+00  1.07289056E+00
  4.60000000E-02  9.99560587E-01  8.11572820E-02 -1.89822609E-02  4.64771999E+00  7.88735440E-01 -7.90787609E-01  1.07842884E+00  1.18117754E+00  9.04162773E-01  7.84423835E+01  1.05075351E+00  1.07432929E+00
  4.70000000E-02  9.99548694E-01  8.28696720E-02 -1.93768711E-02  4.64772912E+00  7.88712411E-01 -7.90781191E-01  1.08005975E+00  1.18428212E+00  9.07501262E-01  7.72715585E+01  1.05186159E+00  1.07572054E+00
  4.80000000E-02  9.99536703E-01  8.45809617E-02 -1.97710806E-02  4.64772305E+00  7.88700840E-01 -7.90774617E-01  1.08163697E+00  1.18554777E+00  9.09991078E-01  7.60970815E+01  1.05292128E+00  1.07701600E+00
  4.90000000E-02  9.99524606E-01  8.62914009E-02 -2.01655823E-02  4.64770425E+00  7.88689326E-01 -7.90767876E-01  1.08321443E+00  1.18751075E+00  9.11824283E-01  7.49750124E+01  1.05395436E+00  1.07826296E+00
  5.00000000E-02  9.99512411E-01  8.80010425E-02 -2.05603116E-02  4.64767837E+00  7.88677864E-01 -7.90760973E-01  1.08473822E+00  1.18795127E+00  9.13106484E-01  7.38658446E+01  1.05496135E+00  1.07943919E+00
