 # time mean(w) mean(w**2)
  1.00000000E-03  1.00000090E+00  1.87600114E-03 -4.49528928E-04  4.64753141E+00  7.90883662E-01 -7.90987285E-01  1.00007825E+00  1.33887491E-02  5.12216511E-03  3.08646970E+02  9.99861813E-01  1.00013810E+00
  2.00000000E-03  1.00000182E+00  3.73987163E-03 -8.94191574E-04  4.64752476E+00  7.90784534E-01 -7.90986996E-01  1.00028117E+00  4.80870755E-02  2.21174060E-02  2.89889976E+02  9.99680229E-01  1.00036541E+00
  3.00000000E-03  1.00000434E+00  5.58946912E-03 -1.33524653E-03  4.64752651E+00  7.90682910E-01 -7.90986837E-01  1.00072693E+00  9.11346571E-02  4.96717077E-02  2.74299327E+02  9.99530239E-01  1.00076526E+00
  4.00000000E-03  1.00000781E+00  7.42537676E-03 -1.77315915E-03  4.64752964E+00  7.90576103E-01 -7.90986794E-01  1.00146119E+00  1.39746451E-01  8.21534413E-02  2.60069046E+02  9.99435380E-01  1.00137943E+00
  5.00000000E-03  1.00001199E+00  9.24947506E-03 -2.20828055E-03  4.64753114E+00  7.90463458E-01 -7.90986820E-01  1.00242312E+00  1.87660171E-01  1.15997927E-01  2.45997064E+02  9.99425574E-01  1.00223327E+00
  6.00000000E-03  1.00001343E+00  1.10682585E-02 -2.64296717E-03  4.64756279E+00  7.90387550E-01 -7.90984463E-01  1.00359431E+00  2.40004563E-01  1.51064329E-01  2.32380377E+02  9.99597636E-01  1.00321744E+00
  7.00000000E-03  1.00001461E+00  1.28760595E-02 -3.07460793E-03  4.64759537E+00  7.90310637E-01 -7.90982323E-01  1.00477045E+00  2.87177759E-01  1.87504001E-01  2.18922048E+02  9.99878241E-01  1.00424944E+00
  8.00000000E-03  1.00001561E+00  1.46751695E-02 -3.50393532E-03  4.64762410E+00  7.90229162E-01 -7.90980056E-01  1.00599252E+00  3.32788066E-01  2.25772732E-01  2.06243767E+02  1.00024282E+00  1.00525519E+00
  9.00000000E-03  1.00001641E+00  1.64664679E-02 -3.93118128E-03  4.64764404E+00  7.90139469E-01 -7.90977702E-01  1.00739044E+00  3.76842134E-01  2.65663070E-01  1.94002869E+02  1.00068358E+00  1.00640237E+00
  1.00000000E-02  1.00001701E+00  1.82504701E-02 -4.35648441E-03  4.64765962E+00  7.90045247E-01 -7.90975324E-01  1.00883676E+00  4.22379666E-01  3.05411878E-01  1.82876081E+02  1.00119903E+00  1.00756618E+00
  1.10000000E-02  1.00001751E+00  2.00275068E-02 -4.77992977E-03  4.64767624E+00  7.89950822E-01 -7.90972860E-01  1.01036743E+00  4.64570090E-01  3.41795155E-01  1.72289396E+02  1.00180626E+00  1.00888047E+00
  1.20000000E-02  1.00001797E+00  2.17975395E-02 -5.20161990E-03  4.64769207E+00  7.89855961E-01 -7.90970263E-01  1.01187028E+00  5.06857262E-01  3.74143769E-01  1.62646669E+02  1.00247862E+00  1.01016549E+00
  1.30000000E-02  1.00001847E+00  2.35608191E-02 -5.62162528E-03  4.64770665E+00  7.89761706E-01 -7.90967453E-01  1.01349040E+00  5.46663123E-01  4.03819406E-01  1.53715003E+02  1.00321895E+00  1.01159398E+00
  1.40000000E-02  1.00001905E+00  2.53176015E-02 -6.04001604E-03  4.64772489E+00  7.89669133E-01 -7.90964506E-01  1.01508016E+00  5.85607525E-01  4.32246314E-01  1.46099910E+02  1.00403338E+00  1.01300154E+00
  1.50000000E-02  1.00001972E+00  2.70684654E-02 -6.45684938E-03  4.64774612E+00  7.89576817E-01 -7.90961434E-01  1.01682510E+00  6.21541211E-01  4.60462322E-01  1.39460562E+02  1.00493771E+00  1.01455691E+00
  1.60000000E-02  1.00002051E+00  2.88138439E-02 -6.87219227E-03  4.64776659E+00  7.89483556E-01 -7.90958289E-01  1.01860646E+00  6.57708552E-01  4.88231895E-01  1.34106946E+02  1.00591977E+00  1.01610693E+00
  1.70000000E-02  1.00002143E+00  3.05543964E-02 -7.28608415E-03  4.64778537E+00  7.89390279E-01 -7.90955057E-01  1.02051268E+00  6.89282618E-01  5.13488284E-01  1.29353417E+02  1.00698149E+00  1.01778317E+00
  1.80000000E-02  1.00002249E+00  3.22905303E-02 -7.69858294E-03  4.64780314E+00  7.89296951E-01 -7.90951717E-01  1.02247664E+00  7.22328160E-01  5.36854940E-01  1.25380142E+02  1.00812842E+00  1.01949465E+00
  1.90000000E-02  1.00002368E+00  3.40229255E-02 -8.10972402E-03  4.64782148E+00  7.89202625E-01 -7.90948270E-01  1.02449691E+00  7.50205905E-01  5.59680238E-01  1.21825985E+02  1.00933962E+00  1.02128054E+00
  2.00000000E-02  1.00002503E+00  3.57521029E-02 -8.51955949E-03  4.64784212E+00  7.89107750E-01 -7.90944729E-01  1.02654625E+00  7.80604529E-01  5.81962609E-01  1.19003384E+02  1.01060211E+00  1.02315163E+00
  2.10000000E-02  1.00002652E+00  3.74786932E-02 -8.92811898E-03  4.64786443E+00  7.89012958E-01 -7.90941079E-01  1.02857406E+00  8.05192844E-01  6.03641026E-01  1.16532057E+02  1.01190767E+00  1.02502897E+00
  2.20000000E-02  1.00002816E+00  3.92030723E-02 -9.33546190E-03  4.64788493E+00  7.88918045E-01 -7.90937331E-01  1.03070062E+00  8.32871738E-01  6.23348116E-01  1.14421674E+02  1.01327510E+00  1.02703379E+00
  2.30000000E-02  1.00002877E+00  4.09275695E-02 -9.74635188E-03  4.64793795E+00  7.88886776E-01 -7.90935809E-01  1.03277804E+00  8.55625711E-01  6.41073320E-01  1.12358819E+02  1.01473243E+00  1.02899094E+00
  2.40000000E-02  1.00002948E+00  4.26496149E-02 -1.01535111E-02  4.64799306E+00  7.88857001E-01 -7.90934089E-01  1.03497237E+00  8.80314850E-01  6.58294580E-01  1.10420957E+02  1.01625374E+00  1.03106764E+00
  2.50000000E-02  1.00003027E+00  4.43700328E-02 -1.05588878E-02  4.64804826E+00  7.88828957E-01 -7.90932173E-01  1.03711286E+00  9.02373755E-01  6.76151889E-01  1.08636765E+02  1.01781048E+00  1.03308319E+00
  2.60000000E-02  1.00003114E+00  4.60891617E-02 -1.09629625E-02  4.64810326E+00  7.88802187E-01 -7.90930079E-01  1.03931416E+00  9.24230104E-01  6.94420833E-01  1.06953751E+02  1.01937745E+00  1.03517856E+00
  2.70000000E-02  1.00003207E+00  4.78070368E-02 -1.13659671E-02  4.64815836E+00  7.88776303E-01 -7.90927825E-01  1.04149326E+00  9.46149975E-01  7.12015117E-01  1.05409862E+02  1.02093829E+00  1.03725040E+00
  2.80000000E-02  1.00003308E+00  4.95237537E-02 -1.17680368E-02  4.64821345E+00  7.88751038E-01 -7.90925437E-01  1.04367223E+00  9.65442729E-01  7.27959822E-01  1.03785135E+02  1.02250181E+00  1.03932787E+00
  2.90000000E-02  1.00003418E+00  5.12392299E-02 -1.21693028E-02  4.64826837E+00  7.88726238E-01 -7.90922945E-01  1.04587901E+00  9.86489411E-01  7.42565221E-01  1.02208023E+02  1.02407554E+00  1.04142963E+00
  3.00000000E-02  1.00003537E+00  5.29535007E-02 -1.25698622E-02  4.64832323E+00  7.88701772E-01 -7.90920363E-01  1.04803871E+00  1.00431659E+00  7.56566561E-01  1.00572701E+02  1.02566292E+00  1.04347242E+00
  3.10000000E-02  1.00003666E+00  5.46665666E-02 -1.29697986E-02  4.64837779E+00  7.88677514E-01 -7.90917708E-01  1.05024079E+00  1.02345203E+00  7.70654425E-01  9.90035882E+01  1.02725353E+00  1.04556846E+00
  3.20000000E-02  1.00003804E+00  5.63783880E-02 -1.33691339E-02  4.64843263E+00  7.88653397E-01 -7.90914980E-01  1.05236810E+00  1.04051201E+00  7.84688422E-01  9.74874952E+01  1.02881723E+00  1.04757016E+00
  3.30000000E-02  1.00003953E+00  5.80889840E-02 -1.37679042E-02  4.64848738E+00  7.88629411E-01 -7.90912191E-01  1.05449395E+00  1.05647643E+00  7.97822475E-01  9.59662731E+01  1.03033570E+00  1.04959964E+00
  3.40000000E-02  1.00004111E+00  5.97982115E-02 -1.41661657E-02  4.64854233E+00  7.88605551E-01 -7.90909337E-01  1.05660944E+00  1.07304460E+00  8.09655082E-01  9.44996705E+01  1.03181253E+00  1.05156708E+00
  3.50000000E-02  1.00004277E+00  6.15060760E-02 -1.45639313E-02  4.64859707E+00  7.88581810E-01 -7.90906427E-01  1.05866956E+00  1.08613603E+00  8.20112616E-01  9.29485690E+01  1.03326391E+00  1.05349414E+00
  3.60000000E-02  1.00004451E+00  6.32125028E-02 -1.49612721E-02  4.64865177E+00  7.88558182E-01 -7.90903457E-01  1.06077065E+00  1.10063629E+00  8.30021586E-01  9.14508384E+01  1.03469768E+00  1.05540646E+00
  3.70000000E-02  1.00004633E+00  6.49174936E-02 -1.53581822E-02  4.64870639E+00  7.88534664E-01 -7.90900428E-01  1.06278972E+00  1.11214031E+00  8.39513815E-01  8.99489976E+01  1.03611337E+00  1.05722743E+00
  3.80000000E-02  1.00004821E+00  6.66210714E-02 -1.57547221E-02  4.64876114E+00  7.88511252E-01 -7.90897335E-01  1.06481939E+00  1.12334577E+00  8.48906183E-01  8.84825451E+01  1.03750415E+00  1.05905514E+00
  3.90000000E-02  1.00005014E+00  6.83231840E-02 -1.61508900E-02  4.64881612E+00  7.88487941E-01 -7.90894176E-01  1.06677933E+00  1.13398389E+00  8.57654819E-01  8.70948046E+01  1.03884058E+00  1.06079232E+00
  4.00000000E-02  1.00005212E+00  7.00238790E-02 -1.65467113E-02  4.64887130E+00  7.88464730E-01 -7.90890946E-01  1.06867733E+00  1.14186273E+00  8.65142494E-01  8.56762149E+01  1.04012346E+00  1.06249379E+00
  4.10000000E-02  1.00005414E+00  7.17230918E-02 -1.69422086E-02  4.64892660E+00  7.88441614E-01 -7.90887640E-01  1.07057959E+00  1.15076227E+00  8.71542343E-01  8.43160093E+01  1.04136231E+00  1.06415810E+00
  4.20000000E-02  1.00005619E+00  7.34208411E-02 -1.73373788E-02  4.64898168E+00  7.88418593E-01 -7.90884254E-01  1.07240468E+00  1.15697409E+00  8.76948877E-01  8.29411298E+01  1.04257286E+00  1.06574573E+00
  4.30000000E-02  1.00005827E+00  7.51171716E-02 -1.77322566E-02  4.64903714E+00  7.88395663E-01 -7.90880778E-01  1.07424126E+00  1.16287745E+00  8.82019108E-01  8.15905011E+01  1.04376712E+00  1.06731972E+00
  4.40000000E-02  1.00006037E+00  7.68120770E-02 -1.81268343E-02  4.64909223E+00  7.88372823E-01 -7.90877212E-01  1.07603439E+00  1.16831675E+00  8.86780085E-01  8.02999899E+01  1.04494391E+00  1.06882697E+00
  4.50000000E-02  1.00006247E+00  7.85056486E-02 -1.85211270E-02  4.64914818E+00  7.88350072E-01 -7.90873545E-01  1.07775725E+00  1.17137046E+00  8.91414498E-01  7.90225022E+01  1.04609205E+00  1.07028492E+00
  4.60000000E-02  1.00006458E+00  8.01979268E-02 -1.89151285E-02  4.64920378E+00  7.88327407E-01 -7.90869773E-01  1.07947376E+00  1.17516919E+00  8.95504462E-01  7.78139455E+01  1.04719445E+00  1.07171527E+00
  4.70000000E-02  1.00006669E+00  8.18889135E-02 -1.93088253E-02  4.64925991E+00  7.88304828E-01 -7.90865895E-01  1.08110954E+00  1.17745944E+00  8.98723163E-01  7.66338503E+01  1.04824915E+00  1.07309958E+00
  4.80000000E-02  1.00006879E+00  8.35786894E-02 -1.97022203E-02  4.64929519E+00  7.88293710E-01 -7.90861901E-01  1.08272664E+00  1.17854513E+00  9.01045804E-01  7.54499578E+01  1.04932321E+00  1.07432937E+00
  4.90000000E-02  1.00007089E+00  8.52676048E-02 -2.00956233E-02  4.64932072E+00  7.88282659E-01 -7.90857776E-01  1.08432289E+00  1.18025638E+00  9.02734306E-01  7.43271783E+01  1.05035557E+00  1.07554080E+00
  5.00000000E-02  1.00007298E+00  8.69557358E-02 -2.04890306E-02  4.64934273E+00  7.88271669E-01 -7.90853516E-01  1.08585550E+00  1.17979382E+00  9.04053638E-01  7.32073015E+01  1.05136390E+00  1.07667697E+00
