 # time mean(w) mean(w**2)
  1.00000000E-03  1.00000003E+00  1.87641655E-03 -4.49491413E-04  4.64749331E+00  7.90885701E-01 -7.90989284E-01  1.00000185E+00  1.11809771E-02  4.34243266E-03  3.08300253E+02  9.99861749E-01  1.00013692E+00
  2.00000000E-03  1.00000015E+00  3.74248439E-03 -8.94225047E-04  4.64748431E+00  7.90786176E-01 -7.90988920E-01  1.00004705E+00  4.23313177E-02  1.89997937E-02  2.89039800E+02  9.99677084E-01  1.00034797E+00
  3.00000000E-03  1.00000035E+00  5.59568352E-03 -1.33509492E-03  4.64747698E+00  7.90685234E-01 -7.90988688E-01  1.00025634E+00  8.37221597E-02  4.36879168E-02  2.72953029E+02  9.99519176E-01  1.00070149E+00
  4.00000000E-03  1.00000062E+00  7.43663479E-03 -1.77262014E-03  4.64746761E+00  7.90580009E-01 -7.90988571E-01  1.00069408E+00  1.29406089E-01  7.49398193E-02  2.58224240E+02  9.99407941E-01  1.00124518E+00
  5.00000000E-03  1.00000100E+00  9.26707504E-03 -2.20725058E-03  4.64745463E+00  7.90469678E-01 -7.90988530E-01  1.00139105E+00  1.75059712E-01  1.08848900E-01  2.44057909E+02  9.99366898E-01  1.00198555E+00
  6.00000000E-03  1.00000148E+00  1.10884864E-02 -2.63926815E-03  4.64743681E+00  7.90354186E-01 -7.90988526E-01  1.00235185E+00  2.24935956E-01  1.43973949E-01  2.30550241E+02  9.99413176E-01  1.00291381E+00
  7.00000000E-03  1.00000204E+00  1.29017992E-02 -3.06886663E-03  4.64741490E+00  7.90233149E-01 -7.90988530E-01  1.00342547E+00  2.71473065E-01  1.80269008E-01  2.17359363E+02  9.99551528E-01  1.00391698E+00
  8.00000000E-03  1.00000267E+00  1.47075663E-02 -3.49617657E-03  4.64738969E+00  7.90106812E-01 -7.90988517E-01  1.00455701E+00  3.17841606E-01  2.17807829E-01  2.04972908E+02  9.99774261E-01  1.00494724E+00
  9.00000000E-03  1.00000337E+00  1.65061452E-02 -3.92133256E-03  4.64735881E+00  7.89975010E-01 -7.90988473E-01  1.00583181E+00  3.62037211E-01  2.56097581E-01  1.93184011E+02  1.00007440E+00  1.00610082E+00
  1.00000000E-02  1.00000413E+00  1.82977751E-02 -4.34445245E-03  4.64732291E+00  7.89839040E-01 -7.90988379E-01  1.00714906E+00  4.07777554E-01  2.93776457E-01  1.82369552E+02  1.00044690E+00  1.00727482E+00
  1.10000000E-02  1.00000494E+00  2.00826448E-02 -4.76563311E-03  4.64728478E+00  7.89699869E-01 -7.90988219E-01  1.00859711E+00  4.50698943E-01  3.28750812E-01  1.72172581E+02  1.00090199E+00  1.00858412E+00
  1.20000000E-02  1.00000579E+00  2.18607001E-02 -5.18498844E-03  4.64724438E+00  7.89557934E-01 -7.90987985E-01  1.01003844E+00  4.94181012E-01  3.60105466E-01  1.62819587E+02  1.00141763E+00  1.00989637E+00
  1.30000000E-02  1.00000669E+00  2.36320705E-02 -5.60262065E-03  4.64720003E+00  7.89413264E-01 -7.90987652E-01  1.01160465E+00  5.34892748E-01  3.89025396E-01  1.54199626E+02  1.00198957E+00  1.01132233E+00
  1.40000000E-02  1.00000761E+00  2.53969973E-02 -6.01861211E-03  4.64715550E+00  7.89267504E-01 -7.90987202E-01  1.01319190E+00  5.76050952E-01  4.16686505E-01  1.46775155E+02  1.00262633E+00  1.01277737E+00
  1.50000000E-02  1.00000856E+00  2.71559737E-02 -6.43302084E-03  4.64711242E+00  7.89120531E-01 -7.90986626E-01  1.01487426E+00  6.12514932E-01  4.43872336E-01  1.40293738E+02  1.00334708E+00  1.01430744E+00
  1.60000000E-02  1.00000953E+00  2.89094443E-02 -6.84591496E-03  4.64706685E+00  7.88970561E-01 -7.90985922E-01  1.01663029E+00  6.50009695E-01  4.70499094E-01  1.34934595E+02  1.00414687E+00  1.01590520E+00
  1.70000000E-02  1.00001052E+00  3.06579762E-02 -7.25733461E-03  4.64701768E+00  7.88818395E-01 -7.90985096E-01  1.01844241E+00  6.82187933E-01  4.94744515E-01  1.30210407E+02  1.00502112E+00  1.01753465E+00
  1.80000000E-02  1.00001152E+00  3.24019615E-02 -7.66734837E-03  4.64696580E+00  7.88665182E-01 -7.90984121E-01  1.02035340E+00  7.15877571E-01  5.16855555E-01  1.26124177E+02  1.00598167E+00  1.01927374E+00
  1.90000000E-02  1.00001252E+00  3.41419746E-02 -8.07599912E-03  4.64691271E+00  7.88510912E-01 -7.90983002E-01  1.02226844E+00  7.44183714E-01  5.38252062E-01  1.22500315E+02  1.00701099E+00  1.02100617E+00
  2.00000000E-02  1.00001353E+00  3.58785526E-02 -8.48334379E-03  4.64685887E+00  7.88354947E-01 -7.90981722E-01  1.02429309E+00  7.74310763E-01  5.59925407E-01  1.19490852E+02  1.00809823E+00  1.02287455E+00
  2.10000000E-02  1.00001454E+00  3.76122366E-02 -8.88941352E-03  4.64680616E+00  7.88198809E-01 -7.90980273E-01  1.02628757E+00  8.00047331E-01  5.81577160E-01  1.16944933E+02  1.00924364E+00  1.02472186E+00
  2.20000000E-02  1.00001555E+00  3.93434920E-02 -9.29425405E-03  4.64675247E+00  7.88042445E-01 -7.90978657E-01  1.02838269E+00  8.26549427E-01  6.01885804E-01  1.14696360E+02  1.01043764E+00  1.02669318E+00
  2.30000000E-02  1.00001655E+00  4.10725974E-02 -9.69790424E-03  4.64669616E+00  7.87885523E-01 -7.90976869E-01  1.03044800E+00  8.50714378E-01  6.20210841E-01  1.12623885E+02  1.01167478E+00  1.02864196E+00
  2.40000000E-02  1.00001755E+00  4.27998341E-02 -1.01004227E-02  4.64663777E+00  7.87728125E-01 -7.90974910E-01  1.03259286E+00  8.73975589E-01  6.37614219E-01  1.10606208E+02  1.01296380E+00  1.03066716E+00
  2.50000000E-02  1.00001854E+00  4.45273695E-02 -1.05026910E-02  4.64662889E+00  7.87595242E-01 -7.90972466E-01  1.03472843E+00  8.97250256E-01  6.55174842E-01  1.08799028E+02  1.01436081E+00  1.03273243E+00
  2.60000000E-02  1.00001956E+00  4.62567799E-02 -1.09066909E-02  4.64667857E+00  7.87528414E-01 -7.90964647E-01  1.03686371E+00  9.17888016E-01  6.72956591E-01  1.07066377E+02  1.01591460E+00  1.03478756E+00
  2.70000000E-02  1.00002058E+00  4.79841010E-02 -1.13115779E-02  4.64673467E+00  7.87493736E-01 -7.90962060E-01  1.03902196E+00  9.40024963E-01  6.90370370E-01  1.05503191E+02  1.01747393E+00  1.03688678E+00
  2.80000000E-02  1.00002161E+00  4.97090654E-02 -1.17140201E-02  4.64679197E+00  7.87461688E-01 -7.90959252E-01  1.04115429E+00  9.59144127E-01  7.06612819E-01  1.03913857E+02  1.01903757E+00  1.03894789E+00
  2.90000000E-02  1.00002262E+00  5.14322321E-02 -1.21150160E-02  4.64684950E+00  7.87431814E-01 -7.90956230E-01  1.04332960E+00  9.79291671E-01  7.21539870E-01  1.02333011E+02  1.02061389E+00  1.04105608E+00
  3.00000000E-02  1.00002361E+00  5.31537882E-02 -1.25149249E-02  4.64690742E+00  7.87403561E-01 -7.90953008E-01  1.04546745E+00  9.97652757E-01  7.35575849E-01  1.00741155E+02  1.02220501E+00  1.04311170E+00
  3.10000000E-02  1.00002457E+00  5.48738556E-02 -1.29139650E-02  4.64696502E+00  7.87376519E-01 -7.90949590E-01  1.04761292E+00  1.01513114E+00  7.49237726E-01  9.91428532E+01  1.02379853E+00  1.04518773E+00
  3.20000000E-02  1.00002550E+00  5.65924587E-02 -1.33122805E-02  4.64702272E+00  7.87350388E-01 -7.90945977E-01  1.04973070E+00  1.03275847E+00  7.62769108E-01  9.76361399E+01  1.02537291E+00  1.04722764E+00
  3.30000000E-02  1.00002638E+00  5.83096431E-02 -1.37099751E-02  4.64708019E+00  7.87324939E-01 -7.90942175E-01  1.05180263E+00  1.04782911E+00  7.75625463E-01  9.61190616E+01  1.02690825E+00  1.04924188E+00
  3.40000000E-02  1.00002723E+00  6.00253718E-02 -1.41071424E-02  4.64713746E+00  7.87299965E-01 -7.90938190E-01  1.05388401E+00  1.06377216E+00  7.87509174E-01  9.46550557E+01  1.02840403E+00  1.05124331E+00
  3.50000000E-02  1.00002804E+00  6.17396514E-02 -1.45038177E-02  4.64719429E+00  7.87275293E-01 -7.90934024E-01  1.05591369E+00  1.07723164E+00  7.98235244E-01  9.31612339E+01  1.02987214E+00  1.05318000E+00
  3.60000000E-02  1.00002881E+00  6.34524455E-02 -1.49000495E-02  4.64725071E+00  7.87250822E-01 -7.90929684E-01  1.05796706E+00  1.09045676E+00  8.08258865E-01  9.16629920E+01  1.03132759E+00  1.05510816E+00
  3.70000000E-02  1.00002954E+00  6.51637335E-02 -1.52958721E-02  4.64730652E+00  7.87226508E-01 -7.90925172E-01  1.05998234E+00  1.10279647E+00  8.17759616E-01  9.01976575E+01  1.03276933E+00  1.05697052E+00
  3.80000000E-02  1.00003023E+00  6.68735408E-02 -1.56913256E-02  4.64736216E+00  7.87202326E-01 -7.90920497E-01  1.06196221E+00  1.11306367E+00  8.26927593E-01  8.87298303E+01  1.03418860E+00  1.05879749E+00
  3.90000000E-02  1.00003087E+00  6.85818508E-02 -1.60864331E-02  4.64741746E+00  7.87178264E-01 -7.90915659E-01  1.06391711E+00  1.12370992E+00  8.35651175E-01  8.73375977E+01  1.03556302E+00  1.06058316E+00
  4.00000000E-02  1.00003148E+00  7.02886770E-02 -1.64812077E-02  4.64747262E+00  7.87154311E-01 -7.90910668E-01  1.06579794E+00  1.13216096E+00  8.43419336E-01  8.59578283E+01  1.03688729E+00  1.06231080E+00
  4.10000000E-02  1.00003206E+00  7.19940043E-02 -1.68756726E-02  4.64752740E+00  7.87130461E-01 -7.90905531E-01  1.06766854E+00  1.14020153E+00  8.50246631E-01  8.45963122E+01  1.03816682E+00  1.06400789E+00
  4.20000000E-02  1.00003259E+00  7.36978457E-02 -1.72698355E-02  4.64758187E+00  7.87106707E-01 -7.90900251E-01  1.06950373E+00  1.14752000E+00  8.56181924E-01  8.32651729E+01  1.03941321E+00  1.06564498E+00
  4.30000000E-02  1.00003308E+00  7.54002355E-02 -1.76637201E-02  4.64763607E+00  7.87083044E-01 -7.90894831E-01  1.07130988E+00  1.15306810E+00  8.61658835E-01  8.19300753E+01  1.04063984E+00  1.06723545E+00
  4.40000000E-02  1.00003353E+00  7.71012014E-02 -1.80573344E-02  4.64769010E+00  7.87059466E-01 -7.90889271E-01  1.07310764E+00  1.15860788E+00  8.66783539E-01  8.06409516E+01  1.04184871E+00  1.06878378E+00
  4.50000000E-02  1.00003395E+00  7.88008069E-02 -1.84506866E-02  4.64774391E+00  7.87035970E-01 -7.90883570E-01  1.07484895E+00  1.16285562E+00  8.71612021E-01  7.93887934E+01  1.04303431E+00  1.07028273E+00
  4.60000000E-02  1.00003432E+00  8.04991081E-02 -1.88437769E-02  4.64779791E+00  7.87012552E-01 -7.90877734E-01  1.07655422E+00  1.16611639E+00  8.76032839E-01  7.81678467E+01  1.04417926E+00  1.07173989E+00
  4.70000000E-02  1.00003467E+00  8.21961415E-02 -1.92365982E-02  4.64785160E+00  7.86989207E-01 -7.90871768E-01  1.07821918E+00  1.16936892E+00  8.79740189E-01  7.70011045E+01  1.04527705E+00  1.07316780E+00
  4.80000000E-02  1.00003497E+00  8.38919613E-02 -1.96291387E-02  4.64788236E+00  7.86977282E-01 -7.90865680E-01  1.07982479E+00  1.17099176E+00  8.82655646E-01  7.58444176E+01  1.04638890E+00  1.07443066E+00
  4.90000000E-02  1.00003525E+00  8.55869547E-02 -2.00217359E-02  4.64790500E+00  7.86965409E-01 -7.90859457E-01  1.08142219E+00  1.17232102E+00  8.84985511E-01  7.47124640E+01  1.04745473E+00  1.07566041E+00
  5.00000000E-02  1.00003550E+00  8.72811786E-02 -2.04143690E-02  4.64792392E+00  7.86953581E-01 -7.90853100E-01  1.08299616E+00  1.17343734E+00  8.86908025E-01  7.36216244E+01  1.04849087E+00  1.07686107E+00
