 # time mean(w) mean(w**2)
  1.00000000E-03  1.00000090E+00  1.87600114E-03 -4.49528928E-04  4.64728167E+00  7.90664219E-01 -7.90986654E-01  1.00007825E+00  1.33887491E-02  5.12216512E-03  3.08644225E+02  9.99510572E-01  1.00002573E+00
  2.00000000E-03  1.00000014E+00  3.74193058E-03 -8.95110222E-04  4.64698406E+00  7.90281158E-01 -7.90980662E-01  1.00027780E+00  4.80870740E-02  2.21174384E-02  2.89885071E+02  9.99021681E-01  9.99995522E-01
  3.00000000E-03  9.99999168E-01  5.59252412E-03 -1.33554193E-03  4.64669251E+00  7.89904348E-01 -7.90975192E-01  1.00071657E+00  9.11346625E-02  4.96718386E-02  2.74292267E+02  9.98574176E-01  1.00014203E+00
  4.00000000E-03  9.99998072E-01  7.42932480E-03 -1.77191968E-03  4.64640536E+00  7.89532608E-01 -7.90970144E-01  1.00144168E+00  1.39746505E-01  8.21537415E-02  2.60059870E+02  9.98195499E-01  1.00050640E+00
  5.00000000E-03  9.99996927E-01  9.25461259E-03 -2.20482103E-03  4.64612127E+00  7.89165195E-01 -7.90965424E-01  1.00239291E+00  1.87660247E-01  1.15998566E-01  2.45985836E+02  9.97908779E-01  1.00108516E+00
  6.00000000E-03  9.99995791E-01  1.10704829E-02 -2.63462081E-03  4.64583916E+00  7.88801599E-01 -7.90960955E-01  1.00355889E+00  2.40004974E-01  1.51065821E-01  2.32366886E+02  9.97723133E-01  1.00182526E+00
  7.00000000E-03  9.99994709E-01  1.28780883E-02 -3.06161584E-03  4.64555962E+00  7.88441467E-01 -7.90956673E-01  1.00473049E+00  2.87178517E-01  1.87506880E-01  2.18905905E+02  9.97645027E-01  1.00261397E+00
  8.00000000E-03  9.99993707E-01  1.46780127E-02 -3.48600873E-03  4.64528306E+00  7.88084548E-01 -7.90952545E-01  1.00594859E+00  3.32788216E-01  2.25777915E-01  2.06225241E+02  9.97659735E-01  1.00337768E+00
  9.00000000E-03  9.99992802E-01  1.64707040E-02 -3.90796389E-03  4.64500913E+00  7.87730684E-01 -7.90948532E-01  1.00734310E+00  3.76841650E-01  2.65670225E-01  1.93982835E+02  9.97767853E-01  1.00428618E+00
  1.00000000E-02  9.99991914E-01  1.82566639E-02 -4.32817466E-03  4.64477217E+00  7.87436932E-01 -7.90946739E-01  1.00878665E+00  4.22375529E-01  3.05422884E-01  1.82854870E+02  9.98049335E-01  1.00522752E+00
  1.10000000E-02  9.99990947E-01  2.00362385E-02 -4.74716897E-03  4.64457074E+00  7.87202775E-01 -7.90947017E-01  1.01031453E+00  4.64568318E-01  3.41808308E-01  1.72266600E+02  9.98457334E-01  1.00631778E+00
  1.20000000E-02  9.99990062E-01  2.18090773E-02 -5.16449093E-03  4.64437081E+00  7.86970099E-01 -7.90947187E-01  1.01181466E+00  5.06858430E-01  3.74159491E-01  1.62622114E+02  9.98934232E-01  1.00738325E+00
  1.30000000E-02  9.99989270E-01  2.35754395E-02 -5.58038672E-03  4.64417177E+00  7.86738749E-01 -7.90947224E-01  1.01343210E+00  5.46660666E-01  4.03834852E-01  1.53688940E+02  9.99477553E-01  1.00859776E+00
  1.40000000E-02  9.99988579E-01  2.53355569E-02 -5.99500263E-03  4.64397386E+00  7.86508596E-01 -7.90947134E-01  1.01501917E+00  5.85590927E-01  4.32262027E-01  1.46072023E+02  1.00008585E+00  1.00979348E+00
  1.50000000E-02  9.99987994E-01  2.70899852E-02 -6.40842655E-03  4.64377667E+00  7.86279499E-01 -7.90946904E-01  1.01676150E+00  6.21513696E-01  4.60479135E-01  1.39430290E+02  1.00078007E+00  1.01113509E+00
  1.60000000E-02  9.99987516E-01  2.88391280E-02 -6.82070975E-03  4.64358039E+00  7.86051376E-01 -7.90946538E-01  1.01854052E+00  6.57690928E-01  4.88259050E-01  1.34074811E+02  1.00155523E+00  1.01247229E+00
  1.70000000E-02  9.99987145E-01  3.05836170E-02 -7.23188485E-03  4.64338487E+00  7.85824166E-01 -7.90946014E-01  1.02044436E+00  6.89280910E-01  5.13520982E-01  1.29319485E+02  1.00241373E+00  1.01393662E+00
  1.80000000E-02  9.99986880E-01  3.23238358E-02 -7.64201238E-03  4.64319011E+00  7.85597824E-01 -7.90945333E-01  1.02240550E+00  7.22341812E-01  5.36883386E-01  1.25344940E+02  1.00335926E+00  1.01543829E+00
  1.90000000E-02  9.99986719E-01  3.40604465E-02 -8.05113315E-03  4.64299622E+00  7.85372315E-01 -7.90944476E-01  1.02442279E+00  7.50211341E-01  5.59703881E-01  1.21788932E+02  1.00436512E+00  1.01701598E+00
  2.00000000E-02  9.99986661E-01  3.57939552E-02 -8.45930172E-03  4.64280321E+00  7.85147605E-01 -7.90943445E-01  1.02646932E+00  7.80602176E-01  5.81989093E-01  1.18964259E+02  1.00541822E+00  1.01867895E+00
  2.10000000E-02  9.99986700E-01  3.75249782E-02 -8.86654513E-03  4.64261123E+00  7.84923671E-01 -7.90942227E-01  1.02849470E+00  8.05190025E-01  6.03680316E-01  1.16490778E+02  1.00651211E+00  1.02034820E+00
  2.20000000E-02  9.99986832E-01  3.92538803E-02 -9.27292130E-03  4.64241975E+00  7.84700486E-01 -7.90940825E-01  1.03061880E+00  8.32882190E-01  6.23402495E-01  1.14378830E+02  1.00764449E+00  1.02214000E+00
  2.30000000E-02  9.99987049E-01  4.09809676E-02 -9.67846519E-03  4.64222919E+00  7.84478032E-01 -7.90939233E-01  1.03269588E+00  8.55647956E-01  6.41138958E-01  1.12314820E+02  1.00882469E+00  1.02388034E+00
  2.40000000E-02  9.99987346E-01  4.27064748E-02 -1.00832396E-02  4.64203877E+00  7.84256291E-01 -7.90937450E-01  1.03488985E+00  8.80352127E-01  6.58363348E-01  1.10375205E+02  1.01006244E+00  1.02574276E+00
  2.50000000E-02  9.99987717E-01  4.44305434E-02 -1.04873004E-02  4.64184913E+00  7.84035250E-01 -7.90935468E-01  1.03702988E+00  9.02415424E-01  6.76224645E-01  1.08588941E+02  1.01133395E+00  1.02754644E+00
  2.60000000E-02  9.99988155E-01  4.61533571E-02 -1.08906934E-02  4.64166007E+00  7.83814892E-01 -7.90933284E-01  1.03923064E+00  9.24275325E-01  6.94497161E-01  1.06903850E+02  1.01261520E+00  1.02943196E+00
  2.70000000E-02  9.99988653E-01  4.78748789E-02 -1.12934716E-02  4.64147182E+00  7.83595206E-01 -7.90930901E-01  1.04140890E+00  9.46195558E-01  7.12092259E-01  1.05357965E+02  1.01388959E+00  1.03129501E+00
  2.80000000E-02  9.99989206E-01  4.95951542E-02 -1.16956692E-02  4.64128419E+00  7.83376179E-01 -7.90928321E-01  1.04358726E+00  9.65493552E-01  7.28044605E-01  1.03731470E+02  1.01516630E+00  1.03316425E+00
  2.90000000E-02  9.99989808E-01  5.13140640E-02 -1.20973479E-02  4.64109695E+00  7.83157798E-01 -7.90925559E-01  1.04579339E+00  9.86547037E-01  7.42655762E-01  1.02152465E+02  1.01645297E+00  1.03505806E+00
  3.00000000E-02  9.99990454E-01  5.30316193E-02 -1.24985377E-02  4.64091020E+00  7.82940052E-01 -7.90922614E-01  1.04795237E+00  1.00437890E+00  7.56663974E-01  1.00515070E+02  1.01775353E+00  1.03689389E+00
  3.10000000E-02  9.99991137E-01  5.47477852E-02 -1.28992925E-02  4.64072363E+00  7.82722932E-01 -7.90919497E-01  1.05015381E+00  1.02352662E+00  7.70757349E-01  9.89438859E+01  1.01905747E+00  1.03878349E+00
  3.20000000E-02  9.99991852E-01  5.64625135E-02 -1.32996384E-02  4.64053777E+00  7.82506426E-01 -7.90916202E-01  1.05228037E+00  1.04059956E+00  7.84801870E-01  9.74260034E+01  1.02033488E+00  1.04057972E+00
  3.30000000E-02  9.99992595E-01  5.81758176E-02 -1.36995965E-02  4.64035225E+00  7.82290526E-01 -7.90912741E-01  1.05440509E+00  1.05657175E+00  7.97942265E-01  9.59028615E+01  1.02156734E+00  1.04240416E+00
  3.40000000E-02  9.99993361E-01  5.98875512E-02 -1.40992082E-02  4.64016730E+00  7.82075222E-01 -7.90909113E-01  1.05651925E+00  1.07314877E+00  8.09779375E-01  9.44344646E+01  1.02275830E+00  1.04416751E+00
  3.50000000E-02  9.99994146E-01  6.15977197E-02 -1.44984731E-02  4.63998254E+00  7.81860506E-01 -7.90905329E-01  1.05857795E+00  1.08624304E+00  8.20235605E-01  9.28811278E+01  1.02392408E+00  1.04589073E+00
  3.60000000E-02  9.99994946E-01  6.33062505E-02 -1.48974513E-02  4.63979812E+00  7.81646371E-01 -7.90901391E-01  1.06067776E+00  1.10075517E+00  8.30145861E-01  9.13813635E+01  1.02507273E+00  1.04760025E+00
  3.70000000E-02  9.99995757E-01  6.50131478E-02 -1.52961270E-02  4.63961402E+00  7.81432807E-01 -7.90897307E-01  1.06269542E+00  1.11226456E+00  8.39642107E-01  8.98774219E+01  1.02620373E+00  1.04921909E+00
  3.80000000E-02  9.99996574E-01  6.67184377E-02 -1.56945516E-02  4.63943046E+00  7.81219808E-01 -7.90893076E-01  1.06472392E+00  1.12348403E+00  8.49041368E-01  8.84090746E+01  1.02731054E+00  1.05084550E+00
  3.90000000E-02  9.99997395E-01  6.84220707E-02 -1.60927139E-02  4.63924754E+00  7.81007366E-01 -7.90888702E-01  1.06668239E+00  1.13413351E+00  8.57798053E-01  8.70195388E+01  1.02836379E+00  1.05238225E+00
  4.00000000E-02  9.99998215E-01  7.01240996E-02 -1.64906301E-02  4.63906524E+00  7.80795475E-01 -7.90884188E-01  1.06857891E+00  1.14202520E+00  8.65291419E-01  8.55991161E+01  1.02936415E+00  1.05388383E+00
  4.10000000E-02  9.99999032E-01  7.18244636E-02 -1.68883140E-02  4.63888348E+00  7.80584128E-01 -7.90879534E-01  1.07047954E+00  1.15094058E+00  8.71693950E-01  8.42371385E+01  1.03032086E+00  1.05534921E+00
  4.20000000E-02  9.99999843E-01  7.35231862E-02 -1.72857550E-02  4.63870192E+00  7.80373320E-01 -7.90874744E-01  1.07230285E+00  1.15716259E+00  8.77099020E-01  8.28602167E+01  1.03124959E+00  1.05673815E+00
  4.30000000E-02  1.00000064E+00  7.52203194E-02 -1.76829781E-02  4.63852117E+00  7.80163043E-01 -7.90869811E-01  1.07413776E+00  1.16308243E+00  8.82167808E-01  8.15076092E+01  1.03216226E+00  1.05811437E+00
  4.40000000E-02  1.00000143E+00  7.69158638E-02 -1.80799692E-02  4.63834052E+00  7.79953292E-01 -7.90864739E-01  1.07592920E+00  1.16853442E+00  8.86930512E-01  8.02151043E+01  1.03305782E+00  1.05942426E+00
  4.50000000E-02  1.00000221E+00  7.86099163E-02 -1.84767388E-02  4.63816118E+00  7.79744061E-01 -7.90859529E-01  1.07765052E+00  1.17160494E+00  8.91570420E-01  7.89356856E+01  1.03392541E+00  1.06068578E+00
  4.60000000E-02  1.00000297E+00  8.03025235E-02 -1.88732771E-02  4.63798199E+00  7.79535345E-01 -7.90854184E-01  1.07936524E+00  1.17541872E+00  8.95668303E-01  7.77253031E+01  1.03474801E+00  1.06192022E+00
  4.70000000E-02  1.00000371E+00  8.19936932E-02 -1.92695677E-02  4.63780382E+00  7.79327139E-01 -7.90848710E-01  1.08099934E+00  1.17772444E+00  8.98894158E-01  7.65433196E+01  1.03552341E+00  1.06310931E+00
  4.80000000E-02  1.00000444E+00  8.36835109E-02 -1.96656115E-02  4.63772030E+00  7.79223954E-01 -7.90842995E-01  1.08261458E+00  1.17882777E+00  9.01221758E-01  7.53587700E+01  1.03645341E+00  1.06423999E+00
  4.90000000E-02  1.00000515E+00  8.53724004E-02 -2.00617013E-02  4.63762715E+00  7.79120967E-01 -7.90837145E-01  1.08420893E+00  1.18055118E+00  9.02911196E-01  7.42350436E+01  1.03734154E+00  1.06535240E+00
  5.00000000E-02  1.00000586E+00  8.70604402E-02 -2.04578341E-02  4.63753059E+00  7.79018172E-01 -7.90831165E-01  1.08573989E+00  1.18011030E+00  9.04232681E-01  7.31143790E+01  1.03820553E+00  1.06639013E+00
