 # time mean(w) mean(w**2)
  1.00000000E-03  1.00000003E+00  1.87645836E-03 -4.49490766E-04  4.64749331E+00  7.90885703E-01 -7.90989285E-01  1.00000178E+00  1.09743374E-02  4.30333359E-03  3.07783945E+02  9.99861747E-01  1.00013685E+00
  2.00000000E-03  1.00000015E+00  3.74274132E-03 -8.94220503E-04  4.64748434E+00  7.90786181E-01 -7.90988928E-01  1.00004363E+00  4.11507849E-02  1.86760049E-02  2.88018364E+02  9.99676768E-01  1.00034466E+00
  3.00000000E-03  1.00000035E+00  5.59655082E-03 -1.33509274E-03  4.64747716E+00  7.90685241E-01 -7.90988708E-01  1.00022001E+00  8.20449308E-02  4.24474601E-02  2.71797294E+02  9.99514920E-01  1.00067146E+00
  4.00000000E-03  1.00000063E+00  7.43821663E-03 -1.77263454E-03  4.64746814E+00  7.90579990E-01 -7.90988606E-01  1.00058507E+00  1.26771210E-01  7.26042350E-02  2.57013069E+02  9.99389949E-01  1.00115999E+00
  5.00000000E-03  1.00000100E+00  9.26931964E-03 -2.20730632E-03  4.64745577E+00  7.90469608E-01 -7.90988585E-01  1.00118182E+00  1.72149006E-01  1.05786428E-01  2.42916805E+02  9.99318469E-01  1.00183946E+00
  6.00000000E-03  1.00000148E+00  1.10910357E-02 -2.63938123E-03  4.64743931E+00  7.90354038E-01 -7.90988607E-01  1.00196708E+00  2.22527636E-01  1.40598659E-01  2.29551418E+02  9.99313780E-01  1.00267585E+00
  7.00000000E-03  1.00000205E+00  1.29042483E-02 -3.06904589E-03  4.64741929E+00  7.90232927E-01 -7.90988640E-01  1.00284026E+00  2.66558716E-01  1.76501158E-01  2.16489114E+02  9.99379814E-01  1.00357984E+00
  8.00000000E-03  1.00000268E+00  1.47097712E-02 -3.49643273E-03  4.64739571E+00  7.90106467E-01 -7.90988654E-01  1.00388105E+00  3.13566398E-01  2.13797537E-01  2.04201258E+02  9.99518533E-01  1.00460610E+00
  9.00000000E-03  1.00000338E+00  1.65080373E-02 -3.92168097E-03  4.64736701E+00  7.89974717E-01 -7.90988632E-01  1.00500773E+00  3.55966818E-01  2.51769985E-01  1.92477580E+02  9.99730253E-01  1.00572851E+00
  1.00000000E-02  1.00000415E+00  1.82993735E-02 -4.34490367E-03  4.64733384E+00  7.89838738E-01 -7.90988562E-01  1.00614808E+00  3.99279510E-01  2.89059664E-01  1.81772694E+02  1.00000600E+00  1.00683918E+00
  1.10000000E-02  1.00000496E+00  2.00839351E-02 -4.76619555E-03  4.64729816E+00  7.89699520E-01 -7.90988426E-01  1.00747095E+00  4.41034872E-01  3.23409188E-01  1.71684667E+02  1.00035855E+00  1.00813355E+00
  1.20000000E-02  1.00000583E+00  2.18616853E-02 -5.18566496E-03  4.64726011E+00  7.89557687E-01 -7.90988217E-01  1.00876192E+00  4.82920680E-01  3.53215642E-01  1.62431715E+02  1.00077741E+00  1.00940359E+00
  1.30000000E-02  1.00000673E+00  2.36326602E-02 -5.60339986E-03  4.64721842E+00  7.89413028E-01 -7.90987907E-01  1.01024314E+00  5.21883070E-01  3.80044417E-01  1.53719278E+02  1.00129503E+00  1.01079885E+00
  1.40000000E-02  1.00000766E+00  2.53970193E-02 -6.01949224E-03  4.64717522E+00  7.89266686E-01 -7.90987488E-01  1.01176834E+00  5.61506807E-01  4.07011450E-01  1.46098815E+02  1.00191475E+00  1.01221835E+00
  1.50000000E-02  1.00000862E+00  2.71552671E-02 -6.43400252E-03  4.64713332E+00  7.89119459E-01 -7.90986952E-01  1.01340210E+00  5.96417290E-01  4.34973715E-01  1.39530012E+02  1.00262728E+00  1.01370901E+00
  1.60000000E-02  1.00000960E+00  2.89079153E-02 -6.84700541E-03  4.64709012E+00  7.88970069E-01 -7.90986287E-01  1.01507066E+00  6.32469730E-01  4.61854529E-01  1.34084905E+02  1.00341417E+00  1.01527959E+00
  1.70000000E-02  1.00001060E+00  3.06555138E-02 -7.25854387E-03  4.64704338E+00  7.88818239E-01 -7.90985504E-01  1.01676493E+00  6.62890160E-01  4.84722250E-01  1.29235127E+02  1.00426013E+00  1.01685931E+00
  1.80000000E-02  1.00001161E+00  3.23985171E-02 -7.66868716E-03  4.64699409E+00  7.88665137E-01 -7.90984574E-01  1.01853786E+00  6.95284191E-01  5.05028613E-01  1.25060431E+02  1.00517834E+00  1.01856329E+00
  1.90000000E-02  1.00001263E+00  3.41375200E-02 -8.07746177E-03  4.64694367E+00  7.88511189E-01 -7.90983498E-01  1.02028660E+00  7.22290281E-01  5.24413457E-01  1.21475217E+02  1.00614417E+00  1.02024832E+00
  2.00000000E-02  1.00001366E+00  3.58731095E-02 -8.48491794E-03  4.64689275E+00  7.88355840E-01 -7.90982261E-01  1.02215412E+00  7.51187380E-01  5.43965461E-01  1.18502687E+02  1.00715983E+00  1.02207753E+00
  2.10000000E-02  1.00001468E+00  3.76057763E-02 -8.89108581E-03  4.64684171E+00  7.88199638E-01 -7.90980858E-01  1.02402463E+00  7.76012296E-01  5.64053422E-01  1.15990192E+02  1.00824103E+00  1.02387870E+00
  2.20000000E-02  1.00001570E+00  3.93360185E-02 -9.29601506E-03  4.64678978E+00  7.88043053E-01 -7.90979277E-01  1.02600631E+00  8.01557655E-01  5.83086463E-01  1.13722166E+02  1.00938147E+00  1.02580689E+00
  2.30000000E-02  1.00001673E+00  4.10640814E-02 -9.69974564E-03  4.64673611E+00  7.87885941E-01 -7.90977531E-01  1.02796367E+00  8.25190759E-01  6.00233749E-01  1.11649716E+02  1.01057275E+00  1.02772369E+00
  2.40000000E-02  1.00001774E+00  4.27903008E-02 -1.01023238E-02  4.64668055E+00  7.87728324E-01 -7.90975623E-01  1.02998431E+00  8.47635476E-01  6.16509050E-01  1.09657829E+02  1.01181151E+00  1.02970981E+00
  2.50000000E-02  1.00001875E+00  4.45168546E-02 -1.05046370E-02  4.64667422E+00  7.87595113E-01 -7.90973231E-01  1.03198465E+00  8.70463238E-01  6.32405846E-01  1.07901654E+02  1.01314635E+00  1.03175680E+00
  2.60000000E-02  1.00001979E+00  4.62453098E-02 -1.09086674E-02  4.64672693E+00  7.87528153E-01 -7.90965479E-01  1.03398140E+00  8.90437474E-01  6.48299897E-01  1.06212375E+02  1.01462480E+00  1.03377965E+00
  2.70000000E-02  1.00002084E+00  4.79717249E-02 -1.13135287E-02  4.64678644E+00  7.87493470E-01 -7.90962975E-01  1.03602367E+00  9.12033845E-01  6.64058210E-01  1.04668604E+02  1.01611453E+00  1.03586723E+00
  2.80000000E-02  1.00002189E+00  4.96958456E-02 -1.17159269E-02  4.64684694E+00  7.87461425E-01 -7.90960257E-01  1.03804971E+00  9.30653261E-01  6.78922917E-01  1.03098876E+02  1.01762396E+00  1.03790794E+00
  2.90000000E-02  1.00002293E+00  5.14182620E-02 -1.21168510E-02  4.64690771E+00  7.87431554E-01 -7.90957327E-01  1.04013467E+00  9.50087658E-01  6.92892824E-01  1.01533059E+02  1.01915699E+00  1.04000417E+00
  3.00000000E-02  1.00002395E+00  5.31391308E-02 -1.25166661E-02  4.64696894E+00  7.87403305E-01 -7.90954199E-01  1.04219255E+00  9.68229517E-01  7.06313896E-01  9.99875464E+01  1.02071180E+00  1.04205629E+00
  3.10000000E-02  1.00002493E+00  5.48586163E-02 -1.29155713E-02  4.64702994E+00  7.87376263E-01 -7.90950877E-01  1.04425292E+00  9.84939326E-01  7.19312472E-01  9.84306342E+01  1.02226668E+00  1.04411664E+00
  3.20000000E-02  1.00002588E+00  5.65767101E-02 -1.33137299E-02  4.64709109E+00  7.87350135E-01 -7.90947361E-01  1.04629366E+00  1.00246413E+00  7.32018159E-01  9.69726388E+01  1.02379741E+00  1.04616019E+00
  3.30000000E-02  1.00002680E+00  5.82934858E-02 -1.37112290E-02  4.64715200E+00  7.87324689E-01 -7.90943662E-01  1.04828412E+00  1.01689742E+00  7.44033288E-01  9.54879206E+01  1.02528257E+00  1.04816213E+00
  3.40000000E-02  1.00002768E+00  6.00089087E-02 -1.41081764E-02  4.64721276E+00  7.87299716E-01 -7.90939778E-01  1.05030129E+00  1.03255813E+00  7.55208028E-01  9.40458141E+01  1.02673115E+00  1.05016394E+00
  3.50000000E-02  1.00002852E+00  6.17229585E-02 -1.45046013E-02  4.64727304E+00  7.87275046E-01 -7.90935717E-01  1.05226992E+00  1.04576104E+00  7.65393189E-01  9.25796540E+01  1.02816011E+00  1.05210240E+00
  3.60000000E-02  1.00002932E+00  6.34356331E-02 -1.49005574E-02  4.64733287E+00  7.87250576E-01 -7.90931480E-01  1.05426215E+00  1.05850672E+00  7.75065408E-01  9.11045379E+01  1.02958511E+00  1.05402754E+00
  3.70000000E-02  1.00003008E+00  6.51468672E-02 -1.52960796E-02  4.64739229E+00  7.87226263E-01 -7.90927074E-01  1.05622151E+00  1.07092453E+00  7.84226440E-01  8.96753090E+01  1.03100434E+00  1.05590258E+00
  3.80000000E-02  1.00003080E+00  6.68567103E-02 -1.56912033E-02  4.64745151E+00  7.87202082E-01 -7.90922505E-01  1.05813762E+00  1.08095057E+00  7.92992376E-01  8.82412536E+01  1.03240159E+00  1.05773213E+00
  3.90000000E-02  1.00003149E+00  6.85651221E-02 -1.60859773E-02  4.64751042E+00  7.87178020E-01 -7.90917772E-01  1.06003209E+00  1.09164757E+00  8.01215664E-01  8.68795884E+01  1.03375383E+00  1.05953591E+00
  4.00000000E-02  1.00003213E+00  7.02721053E-02 -1.64803985E-02  4.64756914E+00  7.87154069E-01 -7.90912891E-01  1.06186501E+00  1.10024438E+00  8.08555782E-01  8.55288847E+01  1.03505092E+00  1.06127560E+00
  4.10000000E-02  1.00003274E+00  7.19776502E-02 -1.68745053E-02  4.64762755E+00  7.87130219E-01 -7.90907861E-01  1.06368450E+00  1.10824471E+00  8.15097317E-01  8.41912732E+01  1.03630314E+00  1.06298663E+00
  4.20000000E-02  1.00003331E+00  7.36817257E-02 -1.72682988E-02  4.64768564E+00  7.87106466E-01 -7.90902686E-01  1.06549054E+00  1.11596014E+00  8.20948662E-01  8.28859470E+01  1.03752631E+00  1.06464575E+00
  4.30000000E-02  1.00003384E+00  7.53843732E-02 -1.76618071E-02  4.64774339E+00  7.87082803E-01 -7.90897368E-01  1.06726013E+00  1.12171251E+00  8.26459931E-01  8.15790195E+01  1.03873602E+00  1.06625558E+00
  4.40000000E-02  1.00003433E+00  7.70856135E-02 -1.80550438E-02  4.64780091E+00  7.87059227E-01 -7.90891899E-01  1.06903044E+00  1.12758582E+00  8.31636300E-01  8.03128482E+01  1.03993638E+00  1.06782847E+00
  4.50000000E-02  1.00003479E+00  7.87854748E-02 -1.84480134E-02  4.64785820E+00  7.87035732E-01 -7.90886290E-01  1.07074158E+00  1.13239965E+00  8.36461994E-01  7.90886712E+01  1.04111480E+00  1.06935594E+00
  4.60000000E-02  1.00003521E+00  8.04840260E-02 -1.88407201E-02  4.64791562E+00  7.87012314E-01 -7.90880541E-01  1.07241147E+00  1.13599028E+00  8.40811997E-01  7.78888304E+01  1.04225304E+00  1.07083510E+00
  4.70000000E-02  1.00003560E+00  8.21812793E-02 -1.92331486E-02  4.64797279E+00  7.86988970E-01 -7.90874662E-01  1.07404864E+00  1.13977897E+00  8.44448834E-01  7.67405164E+01  1.04334185E+00  1.07229140E+00
  4.80000000E-02  1.00003595E+00  8.38772695E-02 -1.96252991E-02  4.64800453E+00  7.86977046E-01 -7.90868658E-01  1.07563776E+00  1.14210150E+00  8.47407894E-01  7.56076440E+01  1.04445052E+00  1.07356647E+00
  4.90000000E-02  1.00003627E+00  8.55724059E-02 -2.00175034E-02  4.64802977E+00  7.86965173E-01 -7.90862516E-01  1.07721228E+00  1.14388070E+00  8.49874716E-01  7.44942447E+01  1.04550604E+00  1.07482068E+00
  5.00000000E-02  1.00003657E+00  8.72667052E-02 -2.04097516E-02  4.64805222E+00  7.86953346E-01 -7.90856242E-01  1.07878292E+00  1.14580394E+00  8.52115188E-01  7.34220325E+01  1.04653461E+00  1.07604680E+00
