 # time mean(w) mean(w**2)
  1.00000000E-03  1.00000000E+00  1.88649048E-03 -4.58907887E-04  4.64727910E+00  7.90677030E-01 -7.90986778E-01  1.00000172E+00  1.09972599E-02  4.30809539E-03  3.07789059E+02  9.99529530E-01  1.00000753E+00
  2.00000000E-03  9.99999998E-01  3.76329149E-03 -9.13301620E-04  4.64698314E+00  7.90302588E-01 -7.90980758E-01  1.00004324E+00  4.12342346E-02  1.86881235E-02  2.88032597E+02  9.99048574E-01  9.99940255E-01
  3.00000000E-03  1.00000001E+00  5.62669210E-03 -1.36254037E-03  4.64669377E+00  7.89933174E-01 -7.90975098E-01  1.00021982E+00  8.22801864E-02  4.25038039E-02  2.71834500E+02  9.98597028E-01  9.99996792E-01
  4.00000000E-03  1.00000004E+00  7.47751269E-03 -1.80765270E-03  4.64640947E+00  7.89567785E-01 -7.90969721E-01  1.00058673E+00  1.27446200E-01  7.28007252E-02  2.57081724E+02  9.98193274E-01  1.00022090E+00
  5.00000000E-03  1.00000012E+00  9.31742641E-03 -2.24919436E-03  4.64612924E+00  7.89205858E-01 -7.90964578E-01  1.00118810E+00  1.72920700E-01  1.06216978E-01  2.43014155E+02  9.97854742E-01  1.00064222E+00
  6.00000000E-03  1.00000024E+00  1.11477768E-02 -2.68752415E-03  4.64585214E+00  7.88847037E-01 -7.90959630E-01  1.00199352E+00  2.23680934E-01  1.41261523E-01  2.29666575E+02  9.97595120E-01  1.00123791E+00
  7.00000000E-03  1.00000042E+00  1.29694973E-02 -3.12292926E-03  4.64557837E+00  7.88491089E-01 -7.90954848E-01  1.00287082E+00  2.67753040E-01  1.77308830E-01  2.16637149E+02  9.97417878E-01  1.00188852E+00
  8.00000000E-03  1.00000067E+00  1.47834341E-02 -3.55562359E-03  4.64530755E+00  7.88137862E-01 -7.90950205E-01  1.00391842E+00  3.14932290E-01  2.14712942E-01  2.04388225E+02  9.97326944E-01  1.00265942E+00
  9.00000000E-03  1.00000099E+00  1.65900504E-02 -3.98579551E-03  4.64503958E+00  7.87787270E-01 -7.90945677E-01  1.00506446E+00  3.57587338E-01  2.52811678E-01  1.92697370E+02  9.97353284E-01  1.00354888E+00
  1.00000000E-02  1.00000138E+00  1.83898774E-02 -4.41375927E-03  4.64484360E+00  7.87552937E-01 -7.90945572E-01  1.00620212E+00  4.00914588E-01  2.90495289E-01  1.82007943E+02  9.97553966E-01  1.00441837E+00
  1.10000000E-02  1.00000184E+00  2.01829405E-02 -4.83941377E-03  4.64464921E+00  7.87319791E-01 -7.90945383E-01  1.00753712E+00  4.42919949E-01  3.25826087E-01  1.71958296E+02  9.97839928E-01  1.00548327E+00
  1.20000000E-02  1.00000238E+00  2.19694401E-02 -5.26334195E-03  4.64445611E+00  7.87087717E-01 -7.90945081E-01  1.00882302E+00  4.84821425E-01  3.56270753E-01  1.62720484E+02  9.98193085E-01  1.00652352E+00
  1.30000000E-02  1.00000302E+00  2.37494549E-02 -5.68573952E-03  4.64426401E+00  7.86856649E-01 -7.90944644E-01  1.01029600E+00  5.23844489E-01  3.83022835E-01  1.54000506E+02  9.98643669E-01  1.00768778E+00
  1.40000000E-02  1.00000374E+00  2.55231466E-02 -6.10675390E-03  4.64407264E+00  7.86626533E-01 -7.90944064E-01  1.01182299E+00  5.63495648E-01  4.09560624E-01  1.46344335E+02  9.99203650E-01  1.00888630E+00
  1.50000000E-02  1.00000456E+00  2.72910344E-02 -6.52647497E-03  4.64388210E+00  7.86397325E-01 -7.90943339E-01  1.01346248E+00  5.98355491E-01  4.37321037E-01  1.39758906E+02  9.99859385E-01  1.01014664E+00
  1.60000000E-02  1.00000549E+00  2.90536346E-02 -6.94499560E-03  4.64369243E+00  7.86168987E-01 -7.90942454E-01  1.01515119E+00  6.34530630E-01  4.64628108E-01  1.34323706E+02  1.00059936E+00  1.01149656E+00
  1.70000000E-02  1.00000652E+00  3.08115244E-02 -7.36237589E-03  4.64350373E+00  7.85941484E-01 -7.90941407E-01  1.01685030E+00  6.64888291E-01  4.87990929E-01  1.29494272E+02  1.00139843E+00  1.01285056E+00
  1.80000000E-02  1.00000766E+00  3.25651737E-02 -7.77869321E-03  4.64331589E+00  7.85714789E-01 -7.90940190E-01  1.01863664E+00  6.97539198E-01  5.08480095E-01  1.25327146E+02  1.00226856E+00  1.01433955E+00
  1.90000000E-02  1.00000891E+00  3.43151785E-02 -8.19398907E-03  4.64312897E+00  7.85488875E-01 -7.90938802E-01  1.02038078E+00  7.24488869E-01  5.27831351E-01  1.21743787E+02  1.00318710E+00  1.01580526E+00
  2.00000000E-02  1.00001027E+00  3.60621359E-02 -8.60831771E-03  4.64294289E+00  7.85263721E-01 -7.90937232E-01  1.02224574E+00  7.53667082E-01  5.47186260E-01  1.18772493E+02  1.00414489E+00  1.01742288E+00
  2.10000000E-02  1.00001174E+00  3.78065480E-02 -9.02171402E-03  4.64275801E+00  7.85039305E-01 -7.90935470E-01  1.02410726E+00  7.78431888E-01  5.67227335E-01  1.16265897E+02  1.00516608E+00  1.01900760E+00
  2.20000000E-02  1.00001332E+00  3.95489270E-02 -9.43423150E-03  4.64257395E+00  7.84815609E-01 -7.90933511E-01  1.02609976E+00  8.04230734E-01  5.86637488E-01  1.14017955E+02  1.00625473E+00  1.02072658E+00
  2.30000000E-02  1.00001502E+00  4.12895093E-02 -9.84591636E-03  4.64239110E+00  7.84592614E-01 -7.90931348E-01  1.02805567E+00  8.27847914E-01  6.03966826E-01  1.11956927E+02  1.00739759E+00  1.02243213E+00
  2.40000000E-02  1.00001682E+00  4.30286391E-02 -1.02568156E-02  4.64220895E+00  7.84370302E-01 -7.90928983E-01  1.03008357E+00  8.50440477E-01  6.20225166E-01  1.09953876E+02  1.00858755E+00  1.02421046E+00
  2.50000000E-02  1.00001873E+00  4.47664462E-02 -1.06669803E-02  4.64202778E+00  7.84148658E-01 -7.90926412E-01  1.03208624E+00  8.73294771E-01  6.36089555E-01  1.08184746E+02  1.00980770E+00  1.02601667E+00
  2.60000000E-02  1.00002074E+00  4.65031683E-02 -1.10764527E-02  4.64184737E+00  7.83927667E-01 -7.90923639E-01  1.03408287E+00  8.93309910E-01  6.51926436E-01  1.06480994E+02  1.01102705E+00  1.02782431E+00
  2.70000000E-02  1.00002287E+00  4.82388630E-02 -1.14852860E-02  4.64166776E+00  7.83707316E-01 -7.90920660E-01  1.03612338E+00  9.15025649E-01  6.67845646E-01  1.04942719E+02  1.01224015E+00  1.02969501E+00
  2.80000000E-02  1.00002509E+00  4.99735855E-02 -1.18935213E-02  4.64148909E+00  7.83487593E-01 -7.90917482E-01  1.03815234E+00  9.33662548E-01  6.83108111E-01  1.03381550E+02  1.01346800E+00  1.03152087E+00
  2.90000000E-02  1.00002742E+00  5.17073270E-02 -1.23012060E-02  4.64131092E+00  7.83268488E-01 -7.90914102E-01  1.04024171E+00  9.53238706E-01  6.97395038E-01  1.01824129E+02  1.01471835E+00  1.03340393E+00
  3.00000000E-02  1.00002985E+00  5.34400225E-02 -1.27083892E-02  4.64113373E+00  7.83049987E-01 -7.90910527E-01  1.04230431E+00  9.71387569E-01  7.10986539E-01  1.00271211E+02  1.01598898E+00  1.03524455E+00
  3.10000000E-02  1.00003238E+00  5.51717141E-02 -1.31151012E-02  4.64095695E+00  7.82832081E-01 -7.90906760E-01  1.04437413E+00  9.88214918E-01  7.24047355E-01  9.87013872E+01  1.01726240E+00  1.03709545E+00
  3.20000000E-02  1.00003500E+00  5.69023226E-02 -1.35213995E-02  4.64078107E+00  7.82614757E-01 -7.90902803E-01  1.04642049E+00  1.00577342E+00  7.36830618E-01  9.72309718E+01  1.01851573E+00  1.03893085E+00
  3.30000000E-02  1.00003772E+00  5.86318867E-02 -1.39272897E-02  4.64060580E+00  7.82398007E-01 -7.90898667E-01  1.04841429E+00  1.02025678E+00  7.49067800E-01  9.57431943E+01  1.01972099E+00  1.04072466E+00
  3.40000000E-02  1.00004054E+00  6.03603256E-02 -1.43328203E-02  4.64043126E+00  7.82181819E-01 -7.90894353E-01  1.05043497E+00  1.03599391E+00  7.60556369E-01  9.43059936E+01  1.02088425E+00  1.04252114E+00
  3.50000000E-02  1.00004344E+00  6.20875802E-02 -1.47379964E-02  4.64025722E+00  7.81966183E-01 -7.90889871E-01  1.05240917E+00  1.04926235E+00  7.71084825E-01  9.28438397E+01  1.02202516E+00  1.04425310E+00
  3.60000000E-02  1.00004644E+00  6.38136307E-02 -1.51428611E-02  4.64008373E+00  7.81751090E-01 -7.90885223E-01  1.05440794E+00  1.06208590E+00  7.80960039E-01  9.13674274E+01  1.02316343E+00  1.04597426E+00
  3.70000000E-02  1.00004952E+00  6.55383979E-02 -1.55474380E-02  4.63991091E+00  7.81536531E-01 -7.90880411E-01  1.05637835E+00  1.07458135E+00  7.90242477E-01  8.99305952E+01  1.02429913E+00  1.04764514E+00
  3.80000000E-02  1.00005269E+00  6.72619212E-02 -1.59517460E-02  4.63973885E+00  7.81322498E-01 -7.90875442E-01  1.05830727E+00  1.08465561E+00  7.99091162E-01  8.84862681E+01  1.02542021E+00  1.04927160E+00
  3.90000000E-02  1.00005595E+00  6.89841528E-02 -1.63558222E-02  4.63956745E+00  7.81108983E-01 -7.90870314E-01  1.06021442E+00  1.09548125E+00  8.07491950E-01  8.71203331E+01  1.02650234E+00  1.05087416E+00
  4.00000000E-02  1.00005928E+00  7.07050916E-02 -1.67596575E-02  4.63939688E+00  7.80895978E-01 -7.90865035E-01  1.06205145E+00  1.10409560E+00  8.15063444E-01  8.57698907E+01  1.02752606E+00  1.05241208E+00
  4.10000000E-02  1.00006270E+00  7.24247217E-02 -1.71632810E-02  4.63922696E+00  7.80683476E-01 -7.90859609E-01  1.06388236E+00  1.11224186E+00  8.21849287E-01  8.44350442E+01  1.02849875E+00  1.05392615E+00
  4.20000000E-02  1.00006619E+00  7.41429979E-02 -1.75666904E-02  4.63905766E+00  7.80471471E-01 -7.90854034E-01  1.06569417E+00  1.12003140E+00  8.27903578E-01  8.31327439E+01  1.02943924E+00  1.05538493E+00
  4.30000000E-02  1.00006977E+00  7.58599572E-02 -1.79699010E-02  4.63888889E+00  7.80259954E-01 -7.90848317E-01  1.06747597E+00  1.12583897E+00  8.33528805E-01  8.18210224E+01  1.03036627E+00  1.05679700E+00
  4.40000000E-02  1.00007341E+00  7.75756065E-02 -1.83729245E-02  4.63872079E+00  7.80048921E-01 -7.90842448E-01  1.06926102E+00  1.13188207E+00  8.38754746E-01  8.05506499E+01  1.03128834E+00  1.05817394E+00
  4.50000000E-02  1.00007713E+00  7.92899730E-02 -1.87757539E-02  4.63855325E+00  7.79838365E-01 -7.90836433E-01  1.07098722E+00  1.13667482E+00  8.43627424E-01  7.93172214E+01  1.03219581E+00  1.05950250E+00
  4.60000000E-02  1.00008091E+00  8.10031181E-02 -1.91783978E-02  4.63838673E+00  7.79628281E-01 -7.90830270E-01  1.07267537E+00  1.14043923E+00  8.48112422E-01  7.81143683E+01  1.03306885E+00  1.06078906E+00
  4.70000000E-02  1.00008477E+00  8.27150551E-02 -1.95808404E-02  4.63822072E+00  7.79418661E-01 -7.90823964E-01  1.07432204E+00  1.14429325E+00  8.51901273E-01  7.69672290E+01  1.03389121E+00  1.06204875E+00
  4.80000000E-02  1.00008869E+00  8.44258228E-02 -1.99830781E-02  4.63814516E+00  7.79314466E-01 -7.90817449E-01  1.07592099E+00  1.14664601E+00  8.54990622E-01  7.58343900E+01  1.03485918E+00  1.06322623E+00
  4.90000000E-02  1.00009268E+00  8.61358995E-02 -2.03854478E-02  4.63806373E+00  7.79210393E-01 -7.90810798E-01  1.07750760E+00  1.14858502E+00  8.57544477E-01  7.47237401E+01  1.03576989E+00  1.06438417E+00
  5.00000000E-02  1.00009673E+00  8.78452900E-02 -2.07879234E-02  4.63797990E+00  7.79106443E-01 -7.90804018E-01  1.07908378E+00  1.15045199E+00  8.59818841E-01  7.36479526E+01  1.03665015E+00  1.06551045E+00
