 # time mean(w) mean(w**2)
  1.00000000E-03  1.00000003E+00  1.87643899E-03 -4.49463492E-04  4.64752915E+00  7.90883718E-01 -7.90987195E-01  1.00000183E+00  1.11979823E-02  4.34607015E-03  3.08305951E+02  9.99862014E-01  1.00013698E+00
  2.00000000E-03  1.00000012E+00  3.74254661E-03 -8.94159180E-04  4.64752081E+00  7.90784878E-01 -7.90986849E-01  1.00004633E+00  4.24540263E-02  1.90147627E-02  2.89066544E+02  9.99678687E-01  1.00034754E+00
  3.00000000E-03  1.00000026E+00  5.59617229E-03 -1.33543193E-03  4.64751474E+00  7.90685522E-01 -7.90986635E-01  1.00025295E+00  8.40850016E-02  4.37843297E-02  2.73024686E+02  9.99523091E-01  1.00069935E+00
  4.00000000E-03  1.00000046E+00  7.43779537E-03 -1.77367852E-03  4.64750710E+00  7.90582583E-01 -7.90986534E-01  1.00069062E+00  1.30061383E-01  7.52748254E-02  2.58330971E+02  9.99413998E-01  1.00124561E+00
  5.00000000E-03  1.00000070E+00  9.26912616E-03 -2.20923967E-03  4.64749614E+00  7.90474990E-01 -7.90986509E-01  1.00138691E+00  1.75968424E-01  1.09574281E-01  2.44221443E+02  9.99373452E-01  1.00199049E+00
  6.00000000E-03  1.00000100E+00  1.10916724E-02 -2.64234180E-03  4.64748063E+00  7.90362673E-01 -7.90986522E-01  1.00234862E+00  2.26131820E-01  1.45051380E-01  2.30780561E+02  9.99419375E-01  1.00292707E+00
  7.00000000E-03  1.00000135E+00  1.29063453E-02 -3.07316360E-03  4.64746134E+00  7.90245284E-01 -7.90986541E-01  1.00342687E+00  2.72888986E-01  1.81582322E-01  2.17663683E+02  9.99558717E-01  1.00393978E+00
  8.00000000E-03  1.00000175E+00  1.47136760E-02 -3.50182407E-03  4.64743916E+00  7.90123096E-01 -7.90986538E-01  1.00456228E+00  3.19713344E-01  2.19284074E-01  2.05329753E+02  9.99786458E-01  1.00497594E+00
  9.00000000E-03  1.00000218E+00  1.65140034E-02 -3.92843127E-03  4.64741141E+00  7.89995632E-01 -7.90986494E-01  1.00584150E+00  3.63984836E-01  2.57730496E-01  1.93573493E+02  1.00009534E+00  1.00613651E+00
  1.00000000E-02  1.00000265E+00  1.83075498E-02 -4.35308469E-03  4.64737869E+00  7.89864186E-01 -7.90986392E-01  1.00716511E+00  4.10007208E-01  2.95726599E-01  1.82759631E+02  1.00048128E+00  1.00731487E+00
  1.10000000E-02  1.00000313E+00  2.00944937E-02 -4.77587117E-03  4.64734404E+00  7.89729817E-01 -7.90986215E-01  1.00862052E+00  4.52928230E-01  3.31388529E-01  1.72582828E+02  1.00095601E+00  1.00862774E+00
  1.20000000E-02  1.00000364E+00  2.18747522E-02 -5.19688329E-03  4.64730714E+00  7.89592700E-01 -7.90985950E-01  1.01006973E+00  4.96434243E-01  3.63265563E-01  1.63241335E+02  1.00149616E+00  1.00994371E+00
  1.30000000E-02  1.00000415E+00  2.36484056E-02 -5.61620023E-03  4.64726601E+00  7.89452714E-01 -7.90985579E-01  1.01164234E+00  5.37074201E-01  3.92534542E-01  1.54619048E+02  1.00209361E+00  1.01137058E+00
  1.40000000E-02  1.00000466E+00  2.54156719E-02 -6.03389686E-03  4.64722454E+00  7.89311664E-01 -7.90985086E-01  1.01322962E+00  5.78081911E-01  4.20417331E-01  1.47208440E+02  1.00275063E+00  1.01282783E+00
  1.50000000E-02  1.00000516E+00  2.71770523E-02 -6.45002627E-03  4.64718495E+00  7.89169604E-01 -7.90984465E-01  1.01491523E+00  6.14469809E-01  4.47729973E-01  1.40736959E+02  1.00349333E+00  1.01435739E+00
  1.60000000E-02  1.00000566E+00  2.89329846E-02 -6.86465093E-03  4.64714287E+00  7.89024485E-01 -7.90983712E-01  1.01667705E+00  6.51909717E-01  4.74753531E-01  1.35394833E+02  1.00432091E+00  1.01595900E+00
  1.70000000E-02  1.00000613E+00  3.06840453E-02 -7.27780948E-03  4.64709685E+00  7.88877168E-01 -7.90982820E-01  1.01849148E+00  6.84043683E-01  4.99800813E-01  1.30724381E+02  1.00522088E+00  1.01758912E+00
  1.80000000E-02  1.00000659E+00  3.24306223E-02 -7.68955877E-03  4.64704822E+00  7.88728912E-01 -7.90981779E-01  1.02040730E+00  7.17830003E-01  5.22296994E-01  1.26669881E+02  1.00620328E+00  1.01933324E+00
  1.90000000E-02  1.00000702E+00  3.41732503E-02 -8.09994056E-03  4.64699896E+00  7.88579963E-01 -7.90980588E-01  1.02232319E+00  7.46107387E-01  5.43678845E-01  1.23030450E+02  1.00726170E+00  1.02106787E+00
  2.00000000E-02  1.00000742E+00  3.59124467E-02 -8.50900649E-03  4.64694890E+00  7.88429224E-01 -7.90979236E-01  1.02435330E+00  7.76433368E-01  5.65315163E-01  1.19993403E+02  1.00837647E+00  1.02294341E+00
  2.10000000E-02  1.00000779E+00  3.76487628E-02 -8.91679258E-03  4.64689962E+00  7.88278163E-01 -7.90977719E-01  1.02634828E+00  8.02160198E-01  5.87211366E-01  1.17434272E+02  1.00954574E+00  1.02479463E+00
  2.20000000E-02  1.00000812E+00  3.93826646E-02 -9.32334457E-03  4.64684913E+00  7.88126794E-01 -7.90976034E-01  1.02845609E+00  8.28872934E-01  6.08349504E-01  1.15207877E+02  1.01076415E+00  1.02677553E+00
  2.30000000E-02  1.00000843E+00  4.11144470E-02 -9.72870540E-03  4.64679590E+00  7.87974846E-01 -7.90974173E-01  1.03051924E+00  8.53086014E-01  6.27248623E-01  1.13157121E+02  1.01202027E+00  1.02872891E+00
  2.40000000E-02  1.00000869E+00  4.28443728E-02 -1.01329234E-02  4.64674028E+00  7.87822187E-01 -7.90972135E-01  1.03266400E+00  8.76511394E-01  6.44745960E-01  1.11138674E+02  1.01333022E+00  1.03079018E+00
  2.50000000E-02  1.00000893E+00  4.45784236E-02 -1.05387320E-02  4.64675046E+00  7.87726322E-01 -7.90966295E-01  1.03479944E+00  8.99888247E-01  6.62171472E-01  1.09310051E+02  1.01483732E+00  1.03283431E+00
  2.60000000E-02  1.00000916E+00  4.63099780E-02 -1.09475636E-02  4.64680219E+00  7.87690355E-01 -7.90963867E-01  1.03693646E+00  9.20644078E-01  6.79927859E-01  1.07553374E+02  1.01640647E+00  1.03489864E+00
  2.70000000E-02  1.00000938E+00  4.80381219E-02 -1.13521248E-02  4.64685754E+00  7.87656341E-01 -7.90961225E-01  1.03909340E+00  9.42920653E-01  6.97618824E-01  1.05987692E+02  1.01797620E+00  1.03700281E+00
  2.80000000E-02  1.00000958E+00  4.97642114E-02 -1.17547893E-02  4.64691382E+00  7.87624917E-01 -7.90958373E-01  1.04122676E+00  9.62126148E-01  7.14378321E-01  1.04408838E+02  1.01954494E+00  1.03906876E+00
  2.90000000E-02  1.00000976E+00  5.14885953E-02 -1.21561734E-02  4.64697028E+00  7.87595501E-01 -7.90955315E-01  1.04340011E+00  9.82399280E-01  7.29639422E-01  1.02837163E+02  1.02112212E+00  1.04118357E+00
  3.00000000E-02  1.00000990E+00  5.32114043E-02 -1.25565521E-02  4.64702714E+00  7.87567578E-01 -7.90952058E-01  1.04553382E+00  1.00083697E+00  7.43624175E-01  1.01235708E+02  1.02271220E+00  1.04324512E+00
  3.10000000E-02  1.00001002E+00  5.49327301E-02 -1.29561065E-02  4.64708364E+00  7.87540769E-01 -7.90948608E-01  1.04767629E+00  1.01841436E+00  7.56971246E-01  9.96130584E+01  1.02430451E+00  1.04532449E+00
  3.20000000E-02  1.00001010E+00  5.66525855E-02 -1.33549648E-02  4.64714014E+00  7.87514802E-01 -7.90944964E-01  1.04979151E+00  1.03607313E+00  7.70263311E-01  9.80796264E+01  1.02588388E+00  1.04736935E+00
  3.30000000E-02  1.00001014E+00  5.83710209E-02 -1.37532231E-02  4.64719645E+00  7.87489458E-01 -7.90941131E-01  1.05185949E+00  1.05119716E+00  7.83150096E-01  9.65502821E+01  1.02742557E+00  1.04938634E+00
  3.40000000E-02  1.00001015E+00  6.00880061E-02 -1.41509633E-02  4.64725257E+00  7.87464538E-01 -7.90937114E-01  1.05393481E+00  1.06717262E+00  7.95180647E-01  9.50851899E+01  1.02892134E+00  1.05139255E+00
  3.50000000E-02  1.00001013E+00  6.18035399E-02 -1.45482077E-02  4.64730831E+00  7.87439884E-01 -7.90932920E-01  1.05595865E+00  1.08067915E+00  8.06033189E-01  9.35916054E+01  1.03038638E+00  1.05333152E+00
  3.60000000E-02  1.00001007E+00  6.35175811E-02 -1.49450076E-02  4.64736366E+00  7.87415418E-01 -7.90928557E-01  1.05800604E+00  1.09392603E+00  8.16003853E-01  9.20870712E+01  1.03183717E+00  1.05526300E+00
  3.70000000E-02  1.00000997E+00  6.52301084E-02 -1.53413948E-02  4.64741841E+00  7.87391104E-01 -7.90924030E-01  1.06001774E+00  1.10629958E+00  8.25281241E-01  9.06079983E+01  1.03327529E+00  1.05712644E+00
  3.80000000E-02  1.00000984E+00  6.69411447E-02 -1.57374095E-02  4.64747296E+00  7.87366921E-01 -7.90919344E-01  1.06199786E+00  1.11661027E+00  8.34221093E-01  8.91235283E+01  1.03469712E+00  1.05895586E+00
  3.90000000E-02  1.00000967E+00  6.86506752E-02 -1.61330752E-02  4.64752711E+00  7.87342854E-01 -7.90914499E-01  1.06395492E+00  1.12732136E+00  8.42912656E-01  8.77209342E+01  1.03608187E+00  1.06074484E+00
  4.00000000E-02  1.00000946E+00  7.03587246E-02 -1.65284044E-02  4.64758118E+00  7.87318895E-01 -7.90909502E-01  1.06583300E+00  1.13578977E+00  8.50799440E-01  8.63392877E+01  1.03741549E+00  1.06247342E+00
  4.10000000E-02  1.00000922E+00  7.20652792E-02 -1.69234231E-02  4.64763488E+00  7.87295037E-01 -7.90904358E-01  1.06770167E+00  1.14390011E+00  8.57734151E-01  8.49798620E+01  1.03869887E+00  1.06417450E+00
  4.20000000E-02  1.00000895E+00  7.37703483E-02 -1.73181391E-02  4.64768829E+00  7.87271274E-01 -7.90899068E-01  1.06953371E+00  1.15128273E+00  8.63745519E-01  8.36508274E+01  1.03994586E+00  1.06581191E+00
  4.30000000E-02  1.00000864E+00  7.54739637E-02 -1.77125740E-02  4.64774140E+00  7.87247601E-01 -7.90893638E-01  1.07133713E+00  1.15685566E+00  8.69177133E-01  8.23114720E+01  1.04117074E+00  1.06740477E+00
  4.40000000E-02  1.00000831E+00  7.71761550E-02 -1.81067351E-02  4.64779435E+00  7.87224013E-01 -7.90888068E-01  1.07313776E+00  1.16250600E+00  8.74170300E-01  8.10155851E+01  1.04238005E+00  1.06895598E+00
  4.50000000E-02  1.00000794E+00  7.88769841E-02 -1.85006315E-02  4.64784696E+00  7.87200506E-01 -7.90882355E-01  1.07488141E+00  1.16677016E+00  8.78873193E-01  7.97533326E+01  1.04357194E+00  1.07045576E+00
  4.60000000E-02  1.00000755E+00  8.05765099E-02 -1.88942648E-02  4.64789980E+00  7.87177077E-01 -7.90876505E-01  1.07659143E+00  1.17008201E+00  8.83318029E-01  7.85261953E+01  1.04472890E+00  1.07191566E+00
  4.70000000E-02  1.00000713E+00  8.22747786E-02 -1.92876324E-02  4.64795225E+00  7.87153721E-01 -7.90870517E-01  1.07825770E+00  1.17337476E+00  8.87138170E-01  7.73591006E+01  1.04583850E+00  1.07334346E+00
  4.80000000E-02  1.00000668E+00  8.39718427E-02 -1.96807227E-02  4.64798142E+00  7.87141789E-01 -7.90864396E-01  1.07986142E+00  1.17502032E+00  8.90140226E-01  7.62033438E+01  1.04695472E+00  1.07460912E+00
  4.90000000E-02  1.00000620E+00  8.56680903E-02 -2.00738687E-02  4.64800270E+00  7.87129910E-01 -7.90858137E-01  1.08146059E+00  1.17645453E+00  8.92504165E-01  7.50725047E+01  1.04802060E+00  1.07584186E+00
  5.00000000E-02  1.00000571E+00  8.73635742E-02 -2.04670479E-02  4.64802024E+00  7.87118075E-01 -7.90851740E-01  1.08303133E+00  1.17759958E+00  8.94394299E-01  7.39793953E+01  1.04905362E+00  1.07704350E+00
