 # time mean(w) mean(w**2)
  1.00000000E-03  1.00000000E+00  1.88649048E-03 -4.58907887E-04  4.64727910E+00  7.90677030E-01 -7.90986778E-01  1.00000172E+00  1.09972599E-02  4.30809539E-03  3.07789059E+02  9.99522363E-01  9.99978720E-01
  2.00000000E-03  9.99999997E-01  3.76275318E-03 -9.13066065E-04  4.64679588E+00  7.90146388E-01 -7.90986816E-01  1.00004324E+00  4.12342336E-02  1.86881233E-02  2.88031663E+02  9.98669086E-01  9.99945598E-01
  3.00000000E-03  1.00000000E+00  5.62482757E-03 -1.36154700E-03  4.64650612E+00  7.89777210E-01 -7.90980650E-01  1.00021982E+00  8.22801822E-02  4.25038026E-02  2.71833565E+02  9.98218242E-01  1.00000075E+00
  4.00000000E-03  1.00000003E+00  7.47392327E-03 -1.80573325E-03  4.64622159E+00  7.89412112E-01 -7.90974798E-01  1.00058672E+00  1.27446189E-01  7.28007220E-02  2.57080788E+02  9.97815422E-01  1.00022346E+00
  5.00000000E-03  1.00000010E+00  9.31207697E-03 -2.24634266E-03  4.64594116E+00  7.89050491E-01 -7.90969199E-01  1.00118808E+00  1.72920679E-01  1.06216972E-01  2.43013218E+02  9.97477836E-01  1.00064344E+00
  6.00000000E-03  1.00000022E+00  1.11406932E-02 -2.68375966E-03  4.64566387E+00  7.88691982E-01 -7.90963814E-01  1.00199349E+00  2.23680901E-01  1.41261514E-01  2.29665638E+02  9.97219153E-01  1.00123783E+00
  7.00000000E-03  1.00000040E+00  1.29607182E-02 -3.11827637E-03  4.64538992E+00  7.88336346E-01 -7.90958611E-01  1.00287078E+00  2.67752993E-01  1.77308817E-01  2.16636211E+02  9.97042837E-01  1.00188719E+00
  8.00000000E-03  1.00000065E+00  1.47730012E-02 -3.55010672E-03  4.64511895E+00  7.87983428E-01 -7.90953564E-01  1.00391839E+00  3.14932226E-01  2.14712925E-01  2.04387287E+02  9.96952812E-01  1.00265688E+00
  9.00000000E-03  1.00000097E+00  1.65780057E-02 -3.97943714E-03  4.64485086E+00  7.87633141E-01 -7.90948646E-01  1.00506442E+00  3.57587255E-01  2.52811656E-01  1.92696431E+02  9.96952285E-01  1.00353809E+00
  1.00000000E-02  1.00000137E+00  1.83761932E-02 -4.40657258E-03  4.64462020E+00  7.87341987E-01 -7.90946149E-01  1.00620210E+00  4.00914484E-01  2.90495261E-01  1.82006832E+02  9.97118388E-01  1.00440764E+00
  1.10000000E-02  1.00000184E+00  2.01677509E-02 -4.83151325E-03  4.64442609E+00  7.87109056E-01 -7.90945938E-01  1.00753711E+00  4.42919824E-01  3.25826054E-01  1.71957187E+02  9.97405200E-01  1.00547219E+00
  1.20000000E-02  1.00000239E+00  2.19527076E-02 -5.25456371E-03  4.64423329E+00  7.86877250E-01 -7.90945621E-01  1.00882303E+00  4.84821277E-01  3.56270711E-01  1.62719376E+02  9.97759256E-01  1.00651210E+00
  1.30000000E-02  1.00000303E+00  2.37311908E-02 -5.67603621E-03  4.64404151E+00  7.86646474E-01 -7.90945173E-01  1.01029602E+00  5.23844315E-01  3.83022784E-01  1.53999400E+02  9.98210750E-01  1.00767604E+00
  1.40000000E-02  1.00000376E+00  2.55033740E-02 -6.09610844E-03  4.64385047E+00  7.86416662E-01 -7.90944585E-01  1.01182303E+00  5.63495448E-01  4.09560562E-01  1.46343231E+02  9.98771636E-01  1.00887427E+00
  1.50000000E-02  1.00000459E+00  2.72697790E-02 -6.51488080E-03  4.64366026E+00  7.86187766E-01 -7.90943856E-01  1.01346254E+00  5.98355263E-01  4.37320963E-01  1.39757804E+02  9.99428268E-01  1.01013432E+00
  1.60000000E-02  1.00000553E+00  2.90309229E-02 -6.93245194E-03  4.64347095E+00  7.85959742E-01 -7.90942969E-01  1.01515127E+00  6.34530373E-01  4.64628022E-01  1.34322606E+02  1.00016913E+00  1.01148397E+00
  1.70000000E-02  1.00000658E+00  3.07873835E-02 -7.34888688E-03  4.64328260E+00  7.85732556E-01 -7.90941924E-01  1.01685043E+00  6.64888004E-01  4.87990829E-01  1.29493174E+02  1.00096908E+00  1.01283772E+00
  1.80000000E-02  1.00000774E+00  3.25396303E-02 -7.76426649E-03  4.64309513E+00  7.85506176E-01 -7.90940714E-01  1.01863681E+00  6.97538879E-01  5.08479980E-01  1.25326049E+02  1.00184007E+00  1.01432648E+00
  1.90000000E-02  1.00000902E+00  3.42882588E-02 -8.17863419E-03  4.64290859E+00  7.85280575E-01 -7.90939336E-01  1.02038101E+00  7.24488518E-01  5.27831220E-01  1.21742693E+02  1.00275946E+00  1.01579197E+00
  2.00000000E-02  1.00001042E+00  3.60338649E-02 -8.59204527E-03  4.64272292E+00  7.85055730E-01 -7.90937781E-01  1.02224604E+00  7.53666696E-01  5.47186112E-01  1.18771401E+02  1.00371809E+00  1.01740938E+00
  2.10000000E-02  1.00001193E+00  3.77769503E-02 -9.00453491E-03  4.64253846E+00  7.84831623E-01 -7.90936038E-01  1.02410764E+00  7.78431467E-01  5.67227168E-01  1.16264807E+02  1.00474010E+00  1.01899391E+00
  2.20000000E-02  1.00001356E+00  3.95180264E-02 -9.41615611E-03  4.64235482E+00  7.84608232E-01 -7.90934101E-01  1.02610022E+00  8.04230275E-01  5.86637302E-01  1.14016867E+02  1.00582956E+00  1.02071272E+00
  2.30000000E-02  1.00001530E+00  4.12573298E-02 -9.82695606E-03  4.64217242E+00  7.84385539E-01 -7.90931964E-01  1.02805624E+00  8.27847415E-01  6.03966620E-01  1.11955841E+02  1.00697321E+00  1.02241811E+00
  2.40000000E-02  1.00001716E+00  4.29952047E-02 -1.02369821E-02  4.64199074E+00  7.84163526E-01 -7.90929627E-01  1.03008425E+00  8.50439935E-01  6.20224937E-01  1.09952792E+02  1.00816396E+00  1.02419629E+00
  2.50000000E-02  1.00001913E+00  4.47317797E-02 -1.06462843E-02  4.64181005E+00  7.83942177E-01 -7.90927086E-01  1.03208704E+00  8.73294185E-01  6.36089304E-01  1.08183664E+02  1.00938489E+00  1.02600237E+00
  2.60000000E-02  1.00002122E+00  4.64672915E-02 -1.10549043E-02  4.64163013E+00  7.83721477E-01 -7.90924347E-01  1.03408381E+00  8.93309275E-01  6.51926160E-01  1.06479914E+02  1.01060500E+00  1.02780989E+00
  2.70000000E-02  1.00002341E+00  4.82017973E-02 -1.14628951E-02  4.64145102E+00  7.83501413E-01 -7.90921405E-01  1.03612448E+00  9.15024961E-01  6.67845346E-01  1.04941641E+02  1.01181885E+00  1.02968048E+00
  2.80000000E-02  1.00002572E+00  4.99353520E-02 -1.18702972E-02  4.64127287E+00  7.83281972E-01 -7.90918267E-01  1.03815359E+00  9.33661806E-01  6.83107785E-01  1.03380474E+02  1.01304744E+00  1.03150624E+00
  2.90000000E-02  1.00002813E+00  5.16679463E-02 -1.22771580E-02  4.64109524E+00  7.83063145E-01 -7.90914928E-01  1.04024314E+00  9.53237903E-01  6.97394686E-01  1.01823055E+02  1.01429852E+00  1.03338921E+00
  3.00000000E-02  1.00003066E+00  5.33995145E-02 -1.26835263E-02  4.64091860E+00  7.82844918E-01 -7.90911397E-01  1.04230593E+00  9.71386708E-01  7.10986160E-01  1.00270139E+02  1.01556987E+00  1.03522975E+00
  3.10000000E-02  1.00003328E+00  5.51300976E-02 -1.30894324E-02  4.64074239E+00  7.82627281E-01 -7.90907676E-01  1.04437595E+00  9.88213986E-01  7.24046948E-01  9.87003168E+01  1.01684400E+00  1.03708058E+00
  3.20000000E-02  1.00003601E+00  5.68596152E-02 -1.34949337E-02  4.64056709E+00  7.82410223E-01 -7.90903767E-01  1.04642252E+00  1.00577242E+00  7.36830184E-01  9.72299032E+01  1.01809803E+00  1.03891591E+00
  3.30000000E-02  1.00003885E+00  5.85881054E-02 -1.39000355E-02  4.64039241E+00  7.82193734E-01 -7.90899680E-01  1.04841654E+00  1.02025570E+00  7.49067337E-01  9.57421276E+01  1.01930397E+00  1.04070967E+00
  3.40000000E-02  1.00004178E+00  6.03154867E-02 -1.43047855E-02  4.64021847E+00  7.81977803E-01 -7.90895418E-01  1.05043746E+00  1.03599273E+00  7.60555878E-01  9.43049284E+01  1.02046791E+00  1.04250610E+00
  3.50000000E-02  1.00004481E+00  6.20416991E-02 -1.47091884E-02  4.64004505E+00  7.81762420E-01 -7.90890988E-01  1.05241191E+00  1.04926107E+00  7.71084305E-01  9.28427767E+01  1.02160948E+00  1.04423802E+00
  3.60000000E-02  1.00004793E+00  6.37667222E-02 -1.51132876E-02  4.63987219E+00  7.81547577E-01 -7.90886393E-01  1.05441094E+00  1.06208448E+00  7.80959490E-01  9.13663663E+01  1.02274840E+00  1.04595915E+00
  3.70000000E-02  1.00005115E+00  6.54904760E-02 -1.55171064E-02  4.63970002E+00  7.81333265E-01 -7.90881634E-01  1.05638163E+00  1.07457981E+00  7.90241902E-01  8.99295369E+01  1.02388475E+00  1.04763001E+00
  3.80000000E-02  1.00005445E+00  6.72129994E-02 -1.59206640E-02  4.63952860E+00  7.81119475E-01 -7.90876719E-01  1.05831084E+00  1.08465390E+00  7.99090560E-01  8.84852130E+01  1.02500646E+00  1.04925645E+00
  3.90000000E-02  1.00005785E+00  6.89342432E-02 -1.63239976E-02  4.63935787E+00  7.80906201E-01 -7.90871645E-01  1.06021829E+00  1.09547939E+00  8.07491324E-01  8.71192815E+01  1.02608922E+00  1.05085901E+00
  4.00000000E-02  1.00006134E+00  7.06542060E-02 -1.67270981E-02  4.63918797E+00  7.80693435E-01 -7.90866420E-01  1.06205564E+00  1.10409360E+00  8.15062797E-01  8.57688442E+01  1.02711357E+00  1.05239693E+00
  4.10000000E-02  1.00006491E+00  7.23728714E-02 -1.71299943E-02  4.63901874E+00  7.80481169E-01 -7.90861047E-01  1.06388688E+00  1.11223963E+00  8.21848623E-01  8.44340012E+01  1.02808687E+00  1.05391099E+00
  4.20000000E-02  1.00006856E+00  7.40901935E-02 -1.75326839E-02  4.63885013E+00  7.80269397E-01 -7.90855525E-01  1.06569903E+00  1.12002908E+00  8.27902904E-01  8.31317058E+01  1.02902797E+00  1.05536978E+00
  4.30000000E-02  1.00007229E+00  7.58062088E-02 -1.79351821E-02  4.63868207E+00  7.80058112E-01 -7.90849860E-01  1.06748117E+00  1.12583646E+00  8.33528121E-01  8.18199892E+01  1.02995561E+00  1.05678184E+00
  4.40000000E-02  1.00007610E+00  7.75209242E-02 -1.83375004E-02  4.63851468E+00  7.79847309E-01 -7.90844043E-01  1.06926659E+00  1.13187931E+00  8.38754059E-01  8.05496191E+01  1.03087828E+00  1.05815879E+00
  4.50000000E-02  1.00007999E+00  7.92343667E-02 -1.87396317E-02  4.63834787E+00  7.79636980E-01 -7.90838079E-01  1.07099316E+00  1.13667195E+00  8.43626741E-01  7.93161961E+01  1.03178634E+00  1.05948735E+00
  4.60000000E-02  1.00008395E+00  8.09465987E-02 -1.91415839E-02  4.63818208E+00  7.79427121E-01 -7.90831966E-01  1.07268168E+00  1.14043605E+00  8.48111742E-01  7.81133461E+01  1.03265996E+00  1.06077391E+00
  4.70000000E-02  1.00008798E+00  8.26576340E-02 -1.95433406E-02  4.63801680E+00  7.79217725E-01 -7.90825707E-01  1.07432874E+00  1.14428981E+00  8.51900605E-01  7.69662093E+01  1.03348291E+00  1.06203360E+00
  4.80000000E-02  1.00009209E+00  8.43675110E-02 -1.99448981E-02  4.63794189E+00  7.79113642E-01 -7.90819245E-01  1.07592809E+00  1.14664232E+00  8.54989968E-01  7.58333759E+01  1.03445118E+00  1.06321120E+00
  4.90000000E-02  1.00009626E+00  8.60767045E-02 -2.03465906E-02  4.63786111E+00  7.79009681E-01 -7.90812646E-01  1.07751510E+00  1.14858090E+00  8.57543842E-01  7.47227283E+01  1.03536218E+00  1.06436926E+00
  5.00000000E-02  1.00010049E+00  8.77852195E-02 -2.07483917E-02  4.63777795E+00  7.78905841E-01 -7.90805914E-01  1.07909168E+00  1.15044762E+00  8.59818228E-01  7.36469452E+01  1.03624273E+00  1.06549565E+00
