 # time mean(w) mean(w**2)
  1.00000000E-03  1.00000002E+00  1.87424884E-03 -4.47161512E-04  4.64750877E+00  7.90867390E-01 -7.90990391E-01  1.00000209E+00  1.15936479E-02  4.39011697E-03  3.08750635E+02  9.99836977E-01  1.00019265E+00
  2.00000000E-03  1.00000009E+00  3.74033099E-03 -8.90693295E-04  4.64752031E+00  7.90701007E-01 -7.90989924E-01  1.00005747E+00  4.43915697E-02  1.94088687E-02  2.89548525E+02  9.99648962E-01  1.00045750E+00
  3.00000000E-03  1.00000021E+00  5.59215173E-03 -1.32882595E-03  4.64753394E+00  7.90534925E-01 -7.90989603E-01  1.00030575E+00  8.68409304E-02  4.50629103E-02  2.73429573E+02  9.99492594E-01  1.00089011E+00
  4.00000000E-03  1.00000039E+00  7.43151525E-03 -1.76263210E-03  4.64754871E+00  7.90369280E-01 -7.90989395E-01  1.00079258E+00  1.32441040E-01  7.74500376E-02  2.58796853E+02  9.99396185E-01  1.00151680E+00
  5.00000000E-03  1.00000060E+00  9.26034762E-03 -2.19270086E-03  4.64756352E+00  7.90204117E-01 -7.90989262E-01  1.00153797E+00  1.78022262E-01  1.11712454E-01  2.44660516E+02  9.99386324E-01  1.00233127E+00
  6.00000000E-03  1.00000086E+00  1.10801701E-02 -2.61941635E-03  4.64757774E+00  7.90039507E-01 -7.90989168E-01  1.00250643E+00  2.26152846E-01  1.47145173E-01  2.31022954E+02  9.99477634E-01  1.00329091E+00
  7.00000000E-03  1.00000117E+00  1.28917476E-02 -3.04308730E-03  4.64759219E+00  7.89875591E-01 -7.90989082E-01  1.00361572E+00  2.73006827E-01  1.83880534E-01  2.17737191E+02  9.99674422E-01  1.00434289E+00
  8.00000000E-03  1.00000152E+00  1.46956257E-02 -3.46390548E-03  4.64760725E+00  7.89712591E-01 -7.90988985E-01  1.00478180E+00  3.18356061E-01  2.21905624E-01  2.05211624E+02  9.99962319E-01  1.00541917E+00
  9.00000000E-03  1.00000190E+00  1.64924465E-02 -3.88255837E-03  4.64767551E+00  7.89615675E-01 -7.90985304E-01  1.00606902E+00  3.62789655E-01  2.60257244E-01  1.93304465E+02  1.00043736E+00  1.00662273E+00
  1.00000000E-02  1.00000232E+00  1.82826209E-02 -4.29982972E-03  4.64776271E+00  7.89581840E-01 -7.90985496E-01  1.00736416E+00  4.06795882E-01  2.97119107E-01  1.82314380E+02  1.00102168E+00  1.00783082E+00
  1.10000000E-02  1.00000276E+00  2.00660991E-02 -4.71524666E-03  4.64784950E+00  7.89548600E-01 -7.90985607E-01  1.00881302E+00  4.50012857E-01  3.30819546E-01  1.71937085E+02  1.00168906E+00  1.00917972E+00
  1.20000000E-02  1.00000322E+00  2.18429418E-02 -5.12904195E-03  4.64793644E+00  7.89515740E-01 -7.90985621E-01  1.01025329E+00  4.93341068E-01  3.61429853E-01  1.62398403E+02  1.00242114E+00  1.01053122E+00
  1.30000000E-02  1.00000370E+00  2.36132945E-02 -5.54132965E-03  4.64802273E+00  7.89483185E-01 -7.90985513E-01  1.01181724E+00  5.34511525E-01  3.89986609E-01  1.53665023E+02  1.00321112E+00  1.01201506E+00
  1.40000000E-02  1.00000418E+00  2.53774468E-02 -5.95219248E-03  4.64810889E+00  7.89450901E-01 -7.90985267E-01  1.01338982E+00  5.75372712E-01  4.17212530E-01  1.46154646E+02  1.00406288E+00  1.01351218E+00
  1.50000000E-02  1.00000467E+00  2.71358157E-02 -6.36168849E-03  4.64819440E+00  7.89418858E-01 -7.90984872E-01  1.01508649E+00  6.12384249E-01  4.43720836E-01  1.39628715E+02  1.00499534E+00  1.01510545E+00
  1.60000000E-02  1.00000516E+00  2.88888645E-02 -6.76988311E-03  4.64827972E+00  7.89387033E-01 -7.90984315E-01  1.01682725E+00  6.49385512E-01  4.69137477E-01  1.34214217E+02  1.00601273E+00  1.01674225E+00
  1.70000000E-02  1.00000564E+00  3.06371547E-02 -7.17682994E-03  4.64836435E+00  7.89355408E-01 -7.90983586E-01  1.01865055E+00  6.81763385E-01  4.92634067E-01  1.29488551E+02  1.00711689E+00  1.01844125E+00
  1.80000000E-02  1.00000612E+00  3.23812057E-02 -7.58259024E-03  4.64844857E+00  7.89323968E-01 -7.90982673E-01  1.02054687E+00  7.14889737E-01  5.14899844E-01  1.25470885E+02  1.00830818E+00  1.02022266E+00
  1.90000000E-02  1.00000659E+00  3.41216309E-02 -7.98720495E-03  4.64853224E+00  7.89292701E-01 -7.90981567E-01  1.02245495E+00  7.43288467E-01  5.36481162E-01  1.21970134E+02  1.00956014E+00  1.02202363E+00
  2.00000000E-02  1.00000704E+00  3.58589809E-02 -8.39072321E-03  4.64861552E+00  7.89261596E-01 -7.90980252E-01  1.02445424E+00  7.72721438E-01  5.57809827E-01  1.19049707E+02  1.01086633E+00  1.02394153E+00
  2.10000000E-02  1.00000748E+00  3.75937995E-02 -8.79318839E-03  4.64869814E+00  7.89230645E-01 -7.90978720E-01  1.02645595E+00  7.98091829E-01  5.79085900E-01  1.16547540E+02  1.01222951E+00  1.02584641E+00
  2.20000000E-02  1.00000791E+00  3.93265133E-02 -9.19465337E-03  4.64877981E+00  7.89199840E-01 -7.90976971E-01  1.02856651E+00  8.24182528E-01  5.99323660E-01  1.14328510E+02  1.01365364E+00  1.02786688E+00
  2.30000000E-02  1.00000832E+00  4.10574427E-02 -9.59516922E-03  4.64886060E+00  7.89169174E-01 -7.90975005E-01  1.03066248E+00  8.47771766E-01  6.18168728E-01  1.12265995E+02  1.01513168E+00  1.02986711E+00
  2.40000000E-02  1.00000870E+00  4.27868577E-02 -9.99479279E-03  4.64894020E+00  7.89138642E-01 -7.90972821E-01  1.03283077E+00  8.70900180E-01  6.36522339E-01  1.10291524E+02  1.01666390E+00  1.03194720E+00
  2.50000000E-02  1.00000907E+00  4.45149160E-02 -1.03935716E-02  4.64901943E+00  7.89108237E-01 -7.90970414E-01  1.03496609E+00  8.93466360E-01  6.54812079E-01  1.08514026E+02  1.01822400E+00  1.03402575E+00
  2.60000000E-02  1.00000942E+00  4.62417618E-02 -1.07915484E-02  4.64909790E+00  7.89077956E-01 -7.90967784E-01  1.03711071E+00  9.14227665E-01  6.72744165E-01  1.06802728E+02  1.01979057E+00  1.03613346E+00
  2.70000000E-02  1.00000974E+00  4.79674102E-02 -1.11887728E-02  4.64917625E+00  7.89047794E-01 -7.90964926E-01  1.03927076E+00  9.35938954E-01  6.90020236E-01  1.05232133E+02  1.02136069E+00  1.03827067E+00
  2.80000000E-02  1.00001004E+00  4.96918908E-02 -1.15852883E-02  4.64925379E+00  7.89017747E-01 -7.90961845E-01  1.04141886E+00  9.54939835E-01  7.06051078E-01  1.03614803E+02  1.02293877E+00  1.04038373E+00
  2.90000000E-02  1.00001031E+00  5.14151703E-02 -1.19811465E-02  4.64933068E+00  7.88987812E-01 -7.90958545E-01  1.04360536E+00  9.75014027E-01  7.21060585E-01  1.02021015E+02  1.02452743E+00  1.04253747E+00
  3.00000000E-02  1.00001056E+00  5.31372209E-02 -1.23763894E-02  4.64940705E+00  7.88957987E-01 -7.90955035E-01  1.04576602E+00  9.93091451E-01  7.35592313E-01  1.00414805E+02  1.02612271E+00  1.04464297E+00
  3.10000000E-02  1.00001078E+00  5.48580385E-02 -1.27710512E-02  4.64948278E+00  7.88928267E-01 -7.90951312E-01  1.04792879E+00  1.01092654E+00  7.49810201E-01  9.88338964E+01  1.02771633E+00  1.04676707E+00
  3.20000000E-02  1.00001098E+00  5.65775702E-02 -1.31651700E-02  4.64955855E+00  7.88898653E-01 -7.90947380E-01  1.05005586E+00  1.02831406E+00  7.63673578E-01  9.73260087E+01  1.02928497E+00  1.04885026E+00
  3.30000000E-02  1.00001115E+00  5.82957996E-02 -1.35587747E-02  4.64963348E+00  7.88869139E-01 -7.90943253E-01  1.05215179E+00  1.04374046E+00  7.76672110E-01  9.58080456E+01  1.03081691E+00  1.05091351E+00
  3.40000000E-02  1.00001129E+00  6.00126491E-02 -1.39519021E-02  4.64970839E+00  7.88839726E-01 -7.90938932E-01  1.05424950E+00  1.05969833E+00  7.88490828E-01  9.43290664E+01  1.03231154E+00  1.05295408E+00
  3.50000000E-02  1.00001140E+00  6.17280894E-02 -1.43445706E-02  4.64978238E+00  7.88810410E-01 -7.90934431E-01  1.05630317E+00  1.07312155E+00  7.99089919E-01  9.28042638E+01  1.03377902E+00  1.05493458E+00
  3.60000000E-02  1.00001149E+00  6.34420818E-02 -1.47368188E-02  4.64985610E+00  7.88781189E-01 -7.90929754E-01  1.05836844E+00  1.08667475E+00  8.08993479E-01  9.12950278E+01  1.03522679E+00  1.05690354E+00
  3.70000000E-02  1.00001155E+00  6.51545942E-02 -1.51286624E-02  4.64992924E+00  7.88752063E-01 -7.90924909E-01  1.06038143E+00  1.09868076E+00  8.18321059E-01  8.98064181E+01  1.03665012E+00  1.05880220E+00
  3.80000000E-02  1.00001158E+00  6.68656337E-02 -1.55201201E-02  4.65000239E+00  7.88723029E-01 -7.90919902E-01  1.06235334E+00  1.10918118E+00  8.27129907E-01  8.83300194E+01  1.03804218E+00  1.06066490E+00
  3.90000000E-02  1.00001158E+00  6.85751726E-02 -1.59112078E-02  4.65007542E+00  7.88694085E-01 -7.90914734E-01  1.06428999E+00  1.11966982E+00  8.35403634E-01  8.69268059E+01  1.03939128E+00  1.06248103E+00
  4.00000000E-02  1.00001155E+00  7.02832176E-02 -1.63019358E-02  4.65014824E+00  7.88665231E-01 -7.90909418E-01  1.06616369E+00  1.12784447E+00  8.42712337E-01  8.55247837E+01  1.04069233E+00  1.06423731E+00
  4.10000000E-02  1.00001150E+00  7.19897671E-02 -1.66923225E-02  4.65022084E+00  7.88636465E-01 -7.90903955E-01  1.06802909E+00  1.13588010E+00  8.49103172E-01  8.41491223E+01  1.04195113E+00  1.06595993E+00
  4.20000000E-02  1.00001141E+00  7.36948227E-02 -1.70823724E-02  4.65029302E+00  7.88607785E-01 -7.90898351E-01  1.06985126E+00  1.14265245E+00  8.54634301E-01  8.27929685E+01  1.04317915E+00  1.06761865E+00
  4.30000000E-02  1.00001129E+00  7.53984211E-02 -1.74720904E-02  4.65032764E+00  7.88593246E-01 -7.90892613E-01  1.07164307E+00  1.14802450E+00  8.59679068E-01  8.14395481E+01  1.04443517E+00  1.06910740E+00
  4.40000000E-02  1.00001115E+00  7.71009617E-02 -1.78618747E-02  4.65035622E+00  7.88578769E-01 -7.90886735E-01  1.07341253E+00  1.15335594E+00  8.64312101E-01  8.01424095E+01  1.04565953E+00  1.07054509E+00
  4.50000000E-02  1.00001097E+00  7.88024759E-02 -1.82517158E-02  4.65038196E+00  7.88564344E-01 -7.90880733E-01  1.07511305E+00  1.15698319E+00  8.68543722E-01  7.88718863E+01  1.04684662E+00  1.07193093E+00
  4.60000000E-02  1.00001076E+00  8.05030059E-02 -1.86416135E-02  4.65040649E+00  7.88549965E-01 -7.90874605E-01  1.07678632E+00  1.16016616E+00  8.72326559E-01  7.76446864E+01  1.04798694E+00  1.07328837E+00
  4.70000000E-02  1.00001052E+00  8.22025736E-02 -1.90315464E-02  4.65043036E+00  7.88535627E-01 -7.90868357E-01  1.07840949E+00  1.16289280E+00  8.75453299E-01  7.64688928E+01  1.04907955E+00  1.07460188E+00
  4.80000000E-02  1.00001024E+00  8.39012303E-02 -1.94215103E-02  4.65045414E+00  7.88521326E-01 -7.90861991E-01  1.07998809E+00  1.16400216E+00  8.77882587E-01  7.52978482E+01  1.05013119E+00  1.07586873E+00
  4.90000000E-02  1.00000994E+00  8.55990298E-02 -1.98114873E-02  4.65047763E+00  7.88507060E-01 -7.90855505E-01  1.08156350E+00  1.16533684E+00  8.79841765E-01  7.41669629E+01  1.05115185E+00  1.07711413E+00
  5.00000000E-02  1.00000961E+00  8.72960173E-02 -2.02014649E-02  4.65050124E+00  7.88492828E-01 -7.90848902E-01  1.08309816E+00  1.16574377E+00  8.81415625E-01  7.30655578E+01  1.05215216E+00  1.07832536E+00
