 # time mean(w) mean(w**2)
  1.00000000E-03  9.99999982E-01  1.88964138E-03 -4.60896701E-04  4.64727903E+00  7.90679491E-01 -7.90986655E-01  9.99999965E-01  1.32617429E-02  4.71717412E-03  3.05755703E+02  9.99494426E-01  9.99963480E-01
  2.00000000E-03  9.99999948E-01  3.77440943E-03 -9.17889554E-04  4.64708948E+00  7.90455223E-01 -7.90982761E-01  1.00001141E+00  3.89854238E-02  1.63929395E-02  2.84547812E+02  9.99221726E-01  9.99944403E-01
  3.00000000E-03  9.99999910E-01  5.64530337E-03 -1.37143848E-03  4.64679549E+00  7.90084636E-01 -7.90976837E-01  1.00008426E+00  7.21468350E-02  3.53963535E-02  2.67444596E+02  9.98750974E-01  9.99904903E-01
  4.00000000E-03  9.99999881E-01  7.49999626E-03 -1.82051115E-03  4.64650749E+00  7.89718521E-01 -7.90971227E-01  1.00029268E+00  1.12406370E-01  6.12759683E-02  2.51916971E+02  9.98310274E-01  9.99986678E-01
  5.00000000E-03  9.99999878E-01  9.34310846E-03 -2.26581003E-03  4.64622404E+00  7.89356019E-01 -7.90965861E-01  1.00067271E+00  1.55453706E-01  9.09478653E-02  2.37468446E+02  9.97913515E-01  1.00021471E+00
  6.00000000E-03  9.99999916E-01  1.11758986E-02 -2.70774816E-03  4.64594456E+00  7.88996643E-01 -7.90960701E-01  1.00118041E+00  1.97595687E-01  1.22852153E-01  2.23968559E+02  9.97571753E-01  1.00055193E+00
  7.00000000E-03  1.00000001E+00  1.29995589E-02 -3.14664089E-03  4.64566832E+00  7.88640088E-01 -7.90955712E-01  1.00182409E+00  2.39979939E-01  1.55990267E-01  2.11155070E+02  9.97292498E-01  1.00099979E+00
  8.00000000E-03  1.00000016E+00  1.48144057E-02 -3.58268865E-03  4.64539548E+00  7.88286162E-01 -7.90950895E-01  1.00259256E+00  2.80187541E-01  1.89182754E-01  1.98937852E+02  9.97077192E-01  1.00155315E+00
  9.00000000E-03  1.00000040E+00  1.66213053E-02 -4.01611904E-03  4.64512543E+00  7.87934753E-01 -7.90946195E-01  1.00342922E+00  3.20437616E-01  2.21644437E-01  1.87504436E+02  9.96951870E-01  1.00217887E+00
  1.00000000E-02  1.00000071E+00  1.84202271E-02 -4.44685939E-03  4.64492835E+00  7.87700287E-01 -7.90946023E-01  1.00434410E+00  3.57855660E-01  2.52079529E-01  1.76733051E+02  9.96989866E-01  1.00286829E+00
  1.10000000E-02  1.00000110E+00  2.02111529E-02 -4.87519207E-03  4.64473282E+00  7.87466939E-01 -7.90945766E-01  1.00537145E+00  3.96494868E-01  2.80457406E-01  1.66706930E+02  9.97098882E-01  1.00366668E+00
  1.20000000E-02  1.00000159E+00  2.19947233E-02 -5.30163921E-03  4.64453905E+00  7.87234565E-01 -7.90945424E-01  1.00643263E+00  4.31506452E-01  3.07341586E-01  1.57453839E+02  9.97287525E-01  1.00446709E+00
  1.30000000E-02  1.00000218E+00  2.37719638E-02 -5.72643152E-03  4.64434630E+00  7.87003109E-01 -7.90944965E-01  1.00764718E+00  4.67554698E-01  3.33603466E-01  1.49190058E+02  9.97562453E-01  1.00538973E+00
  1.40000000E-02  1.00000287E+00  2.55430311E-02 -6.14965675E-03  4.64415515E+00  7.86772533E-01 -7.90944399E-01  1.00888165E+00  5.00315253E-01  3.58585567E-01  1.41914283E+02  9.97909517E-01  1.00633168E+00
  1.50000000E-02  1.00000367E+00  2.73081072E-02 -6.57144293E-03  4.64396508E+00  7.86542805E-01 -7.90943708E-01  1.01021345E+00  5.32825337E-01  3.81490069E-01  1.35547839E+02  9.98322969E-01  1.00737992E+00
  1.60000000E-02  1.00000460E+00  2.90676805E-02 -6.99185376E-03  4.64377666E+00  7.86313897E-01 -7.90942898E-01  1.01155719E+00  5.62731714E-01  4.02083907E-01  1.29998902E+02  9.98797196E-01  1.00845233E+00
  1.70000000E-02  1.00000565E+00  3.08226443E-02 -7.41099137E-03  4.64358917E+00  7.86085786E-01 -7.90941927E-01  1.01298616E+00  5.91804989E-01  4.21155300E-01  1.25167233E+02  9.99336092E-01  1.00962953E+00
  1.80000000E-02  1.00000683E+00  3.25738530E-02 -7.82889329E-03  4.64340308E+00  7.85858450E-01 -7.90940822E-01  1.01442911E+00  6.18740678E-01  4.39424931E-01  1.21047654E+02  9.99932935E-01  1.01083669E+00
  1.90000000E-02  1.00000815E+00  3.43217116E-02 -8.24563183E-03  4.64321785E+00  7.85631868E-01 -7.90939532E-01  1.01595571E+00  6.44649421E-01  4.56892197E-01  1.17486266E+02  1.00058621E+00  1.01213238E+00
  2.00000000E-02  1.00000959E+00  3.60664175E-02 -8.66124031E-03  4.64303404E+00  7.85406021E-01 -7.90938108E-01  1.01751521E+00  6.69367933E-01  4.73340294E-01  1.14414660E+02  1.00129244E+00  1.01347709E+00
  2.10000000E-02  1.00001118E+00  3.78082336E-02 -9.07577613E-03  4.64285127E+00  7.85180893E-01 -7.90936484E-01  1.01912725E+00  6.92406934E-01  4.88929997E-01  1.11655816E+02  1.00205695E+00  1.01487126E+00
  2.20000000E-02  1.00001290E+00  3.95476611E-02 -9.48929278E-03  4.64266977E+00  7.84956468E-01 -7.90934713E-01  1.02080164E+00  7.15351297E-01  5.04020465E-01  1.09216584E+02  1.00287862E+00  1.01633584E+00
  2.30000000E-02  1.00001477E+00  4.12851871E-02 -9.90184253E-03  4.64248931E+00  7.84732730E-01 -7.90932737E-01  1.02247448E+00  7.36352609E-01  5.18750968E-01  1.06990447E+02  1.00374773E+00  1.01781751E+00
  2.40000000E-02  1.00001677E+00  4.30213252E-02 -1.03134747E-02  4.64230988E+00  7.84509665E-01 -7.90930606E-01  1.02418712E+00  7.57419644E-01  5.33008339E-01  1.04996307E+02  1.00464606E+00  1.01937343E+00
  2.50000000E-02  1.00001891E+00  4.47559957E-02 -1.07242261E-02  4.64213165E+00  7.84287259E-01 -7.90928281E-01  1.02588717E+00  7.77167688E-01  5.46490118E-01  1.03146242E+02  1.00555916E+00  1.02093346E+00
  2.60000000E-02  1.00002120E+00  4.64892206E-02 -1.11341291E-02  4.64195435E+00  7.84065500E-01 -7.90925788E-01  1.02762958E+00  7.96680433E-01  5.59168491E-01  1.01395456E+02  1.00648858E+00  1.02255825E+00
  2.70000000E-02  1.00002362E+00  4.82209635E-02 -1.15432419E-02  4.64177816E+00  7.83844377E-01 -7.90923116E-01  1.02937336E+00  8.15382662E-01  5.71288845E-01  9.97312535E+01  1.00743994E+00  1.02417917E+00
  2.80000000E-02  1.00002619E+00  4.99513698E-02 -1.19515818E-02  4.64160282E+00  7.83623876E-01 -7.90920250E-01  1.03114838E+00  8.33238188E-01  5.83155117E-01  9.81061284E+01  1.00841512E+00  1.02583333E+00
  2.90000000E-02  1.00002889E+00  5.16806408E-02 -1.23592430E-02  4.64142833E+00  7.83403989E-01 -7.90917225E-01  1.03294886E+00  8.51077257E-01  5.94974223E-01  9.65725063E+01  1.00941090E+00  1.02750712E+00
  3.00000000E-02  1.00003173E+00  5.34086814E-02 -1.27662087E-02  4.64125490E+00  7.83184704E-01 -7.90913997E-01  1.03473179E+00  8.67522400E-01  6.06457729E-01  9.50690709E+01  1.01041087E+00  1.02916109E+00
  3.10000000E-02  1.00003471E+00  5.51355599E-02 -1.31725806E-02  4.64108227E+00  7.82966011E-01 -7.90910623E-01  1.03653938E+00  8.84275269E-01  6.17296132E-01  9.36219674E+01  1.01141086E+00  1.03085943E+00
  3.20000000E-02  1.00003783E+00  5.68610109E-02 -1.35783248E-02  4.64091082E+00  7.82747901E-01 -7.90907063E-01  1.03830305E+00  8.99669651E-01  6.27295198E-01  9.21918186E+01  1.01239459E+00  1.03250396E+00
  3.30000000E-02  1.00004108E+00  5.85851015E-02 -1.39835146E-02  4.64074004E+00  7.82530366E-01 -7.90903337E-01  1.04010482E+00  9.15029121E-01  6.36688508E-01  9.07751002E+01  1.01337413E+00  1.03419172E+00
  3.40000000E-02  1.00004446E+00  6.03078344E-02 -1.43881947E-02  4.64057022E+00  7.82313395E-01 -7.90899458E-01  1.04188496E+00  9.29618669E-01  6.45646086E-01  8.93972323E+01  1.01434909E+00  1.03583738E+00
  3.50000000E-02  1.00004798E+00  6.20292348E-02 -1.47923443E-02  4.64040104E+00  7.82096982E-01 -7.90895392E-01  1.04366059E+00  9.43093018E-01  6.54356419E-01  8.80232571E+01  1.01532035E+00  1.03747163E+00
  3.60000000E-02  1.00005163E+00  6.37494391E-02 -1.51961090E-02  4.64023259E+00  7.81881117E-01 -7.90891192E-01  1.04545566E+00  9.56737802E-01  6.62797548E-01  8.67087093E+01  1.01628256E+00  1.03911369E+00
  3.70000000E-02  1.00005541E+00  6.54681332E-02 -1.55993518E-02  4.64006521E+00  7.81665794E-01 -7.90886823E-01  1.04719338E+00  9.68640670E-01  6.70762337E-01  8.54026243E+01  1.01722278E+00  1.04067995E+00
  3.80000000E-02  1.00005932E+00  6.71854633E-02 -1.60022597E-02  4.63989846E+00  7.81451005E-01 -7.90882300E-01  1.04895932E+00  9.80701984E-01  6.78199719E-01  8.41262001E+01  1.01814283E+00  1.04228250E+00
  3.90000000E-02  1.00006335E+00  6.89011800E-02 -1.64047085E-02  4.63973284E+00  7.81236743E-01 -7.90877652E-01  1.05068211E+00  9.91593019E-01  6.84955389E-01  8.28735163E+01  1.01903591E+00  1.04381137E+00
  4.00000000E-02  1.00006751E+00  7.06155578E-02 -1.68067955E-02  4.63965709E+00  7.81130170E-01 -7.90872684E-01  1.05239026E+00  1.00149254E+00  6.91225859E-01  8.16243366E+01  1.02009707E+00  1.04532828E+00
  4.10000000E-02  1.00007180E+00  7.23293596E-02 -1.72089912E-02  4.63957730E+00  7.81023731E-01 -7.90867612E-01  1.05409735E+00  1.01107223E+00  6.97056625E-01  8.04102707E+01  1.02112846E+00  1.04680726E+00
  4.20000000E-02  1.00007620E+00  7.40425301E-02 -1.76111795E-02  4.63949677E+00  7.80917427E-01 -7.90862376E-01  1.05575419E+00  1.01920266E+00  7.02560510E-01  7.92081763E+01  1.02213452E+00  1.04822697E+00
  4.30000000E-02  1.00008073E+00  7.57552102E-02 -1.80134996E-02  4.63941603E+00  7.80811261E-01 -7.90856997E-01  1.05739885E+00  1.02682294E+00  7.07738289E-01  7.80398675E+01  1.02311729E+00  1.04964372E+00
  4.40000000E-02  1.00008538E+00  7.74671728E-02 -1.84157926E-02  4.63933529E+00  7.80705233E-01 -7.90851519E-01  1.05900601E+00  1.03359924E+00  7.12457714E-01  7.69023318E+01  1.02406609E+00  1.05100361E+00
  4.50000000E-02  1.00009014E+00  7.91784357E-02 -1.88181615E-02  4.63925519E+00  7.80599343E-01 -7.90845860E-01  1.06057456E+00  1.03947541E+00  7.16699792E-01  7.57852484E+01  1.02498495E+00  1.05234806E+00
  4.60000000E-02  1.00009501E+00  8.08889575E-02 -1.92205547E-02  4.63917523E+00  7.80493591E-01 -7.90840108E-01  1.06213827E+00  1.04492187E+00  7.20416938E-01  7.46875686E+01  1.02587193E+00  1.05365605E+00
  4.70000000E-02  1.00010000E+00  8.25988374E-02 -1.96229617E-02  4.63909602E+00  7.80387976E-01 -7.90834201E-01  1.06367490E+00  1.04966649E+00  7.23807120E-01  7.36171391E+01  1.02673969E+00  1.05492697E+00
  4.80000000E-02  1.00010510E+00  8.43081328E-02 -2.00254344E-02  4.63901707E+00  7.80282497E-01 -7.90828144E-01  1.06517967E+00  1.05351692E+00  7.26921261E-01  7.25646718E+01  1.02759351E+00  1.05616338E+00
  4.90000000E-02  1.00011030E+00  8.60169572E-02 -2.04279144E-02  4.63893867E+00  7.80177154E-01 -7.90821976E-01  1.06668651E+00  1.05712535E+00  7.29870736E-01  7.15456187E+01  1.02843734E+00  1.05737426E+00
  5.00000000E-02  1.00011562E+00  8.77253079E-02 -2.08304536E-02  4.63886059E+00  7.80071947E-01 -7.90815657E-01  1.06815177E+00  1.06003987E+00  7.32560659E-01  7.05579612E+01  1.02926389E+00  1.05855440E+00
