 # time mean(w) mean(w**2)
  1.00000000E-03  9.99999982E-01  1.87765717E-03 -4.49343561E-04  4.64753381E+00  7.90883100E-01 -7.90986833E-01  9.99999965E-01  1.32616943E-02  4.71712686E-03  3.05758474E+02  9.99822621E-01  1.00010456E+00
  2.00000000E-03  9.99999983E-01  3.75002008E-03 -8.94219790E-04  4.64750030E+00  7.90780283E-01 -7.90987036E-01  1.00001148E+00  3.89851974E-02  1.63927294E-02  2.84552810E+02  9.99686191E-01  1.00025713E+00
  3.00000000E-03  1.00000001E+00  5.60785358E-03 -1.33519795E-03  4.64747356E+00  7.90653160E-01 -7.90986417E-01  1.00008445E+00  7.21462676E-02  3.53958260E-02  2.67451597E+02  9.99461965E-01  1.00050106E+00
  4.00000000E-03  1.00000003E+00  7.45040769E-03 -1.77298667E-03  4.64745316E+00  7.90530789E-01 -7.90985853E-01  1.00029298E+00  1.12405248E-01  6.12749568E-02  2.51925974E+02  9.99272081E-01  1.00086259E+00
  5.00000000E-03  1.00000007E+00  9.28197804E-03 -2.20792815E-03  4.64743286E+00  7.90407200E-01 -7.90985315E-01  1.00067308E+00  1.55451840E-01  9.09461095E-02  2.37479402E+02  9.99120749E-01  1.00136687E+00
  6.00000000E-03  1.00000011E+00  1.11036998E-02 -2.64027904E-03  4.64741090E+00  7.90280506E-01 -7.90984784E-01  1.00118078E+00  1.97592785E-01  1.22849103E-01  2.23981391E+02  9.99016723E-01  1.00197724E+00
  7.00000000E-03  1.00000015E+00  1.29166734E-02 -3.07023994E-03  4.64738625E+00  7.90149706E-01 -7.90984235E-01  1.00182434E+00  2.39974692E-01  1.55985552E-01  2.11169771E+02  9.98965971E-01  1.00269687E+00
  8.00000000E-03  1.00000019E+00  1.47211352E-02 -3.49792173E-03  4.64735810E+00  7.90014262E-01 -7.90983683E-01  1.00259256E+00  2.80180451E-01  1.89176159E-01  1.98954391E+02  9.98968187E-01  1.00351874E+00
  9.00000000E-03  1.00000023E+00  1.65178809E-02 -3.92348008E-03  4.64732536E+00  7.89874499E-01 -7.90983085E-01  1.00342883E+00  3.20430833E-01  2.21635513E-01  1.87522568E+02  9.99021881E-01  1.00440127E+00
  1.00000000E-02  1.00000026E+00  1.83067996E-02 -4.34696101E-03  4.64729005E+00  7.89731268E-01 -7.90982459E-01  1.00434314E+00  3.57847685E-01  2.52068147E-01  1.76752351E+02  9.99132443E-01  1.00533868E+00
  1.10000000E-02  1.00000028E+00  2.00878643E-02 -4.76849117E-03  4.64725201E+00  7.89585010E-01 -7.90981760E-01  1.00536969E+00  3.96484652E-01  2.80443695E-01  1.66727496E+02  9.99308515E-01  1.00638312E+00
  1.20000000E-02  1.00000030E+00  2.18614789E-02 -5.18810725E-03  4.64721128E+00  7.89436036E-01 -7.90981003E-01  1.00642992E+00  4.31494253E-01  3.07325892E-01  1.57475689E+02  9.99557622E-01  1.00742687E+00
  1.30000000E-02  1.00000031E+00  2.36285897E-02 -5.60591248E-03  4.64716878E+00  7.89285407E-01 -7.90980154E-01  1.00764326E+00  4.67541674E-01  3.33585233E-01  1.49213359E+02  9.99891350E-01  1.00858983E+00
  1.40000000E-02  1.00000030E+00  2.53893068E-02 -6.02193392E-03  4.64712534E+00  7.89132532E-01 -7.90979223E-01  1.00887631E+00  5.00302445E-01  3.58564131E-01  1.41939000E+02  1.00029534E+00  1.00977120E+00
  1.50000000E-02  1.00000029E+00  2.71437755E-02 -6.43626013E-03  4.64708025E+00  7.88977332E-01 -7.90978189E-01  1.01020646E+00  5.32812201E-01  3.81464391E-01  1.35574116E+02  1.00076158E+00  1.01105791E+00
  1.60000000E-02  1.00000027E+00  2.88924552E-02 -6.84892572E-03  4.64703369E+00  7.88820491E-01 -7.90977060E-01  1.01154830E+00  5.62715984E-01  4.02053496E-01  1.30026768E+02  1.00128449E+00  1.01236725E+00
  1.70000000E-02  1.00000024E+00  3.06362142E-02 -7.26000904E-03  4.64698442E+00  7.88662252E-01 -7.90975793E-01  1.01297505E+00  5.91786070E-01  4.21120810E-01  1.25196448E+02  1.00186798E+00  1.01377849E+00
  1.80000000E-02  1.00000020E+00  3.23758862E-02 -7.66952918E-03  4.64693471E+00  7.88503499E-01 -7.90974418E-01  1.01441550E+00  6.18719453E-01  4.39385761E-01  1.21078167E+02  1.00251020E+00  1.01521719E+00
  1.90000000E-02  1.00000015E+00  3.41118597E-02 -8.07754548E-03  4.64688497E+00  7.88344018E-01 -7.90972884E-01  1.01593931E+00  6.44625718E-01  4.56847631E-01  1.17518247E+02  1.00320994E+00  1.01674350E+00
  2.00000000E-02  1.00000009E+00  3.58443189E-02 -8.48408123E-03  4.64683436E+00  7.88183111E-01 -7.90971249E-01  1.01749571E+00  6.69340590E-01  4.73288846E-01  1.14448277E+02  1.00396038E+00  1.01831846E+00
  2.10000000E-02  1.00000003E+00  3.75735139E-02 -8.88918422E-03  4.64678185E+00  7.88021345E-01 -7.90969449E-01  1.01910429E+00  6.92374563E-01  4.88870460E-01  1.11691026E+02  1.00476539E+00  1.01994150E+00
  2.20000000E-02  9.99999965E-01  3.92999348E-02 -9.29290053E-03  4.64672824E+00  7.87859563E-01 -7.90967532E-01  1.02077492E+00  7.15314509E-01  5.03953965E-01  1.09253204E+02  1.00562562E+00  1.02163257E+00
  2.30000000E-02  9.99999892E-01  4.10240605E-02 -9.69527649E-03  4.64667430E+00  7.87698083E-01 -7.90965435E-01  1.02244374E+00  7.36310784E-01  5.18677321E-01  1.07028328E+02  1.00653436E+00  1.02333818E+00
  2.40000000E-02  9.99999816E-01  4.27463985E-02 -1.00963580E-02  4.64662067E+00  7.87536425E-01 -7.90963210E-01  1.02415204E+00  7.57372569E-01  5.32926564E-01  1.05035457E+02  1.00747465E+00  1.02511629E+00
  2.50000000E-02  9.99999735E-01  4.44668642E-02 -1.04961794E-02  4.64656709E+00  7.87374043E-01 -7.90960817E-01  1.02584740E+00  7.77113879E-01  5.46398837E-01  1.03186759E+02  1.00843012E+00  1.02689820E+00
  2.60000000E-02  9.99999652E-01  4.61854758E-02 -1.08947713E-02  4.64651229E+00  7.87211186E-01 -7.90958280E-01  1.02758484E+00  7.96619322E-01  5.59067812E-01  1.01437448E+02  1.00939868E+00  1.02874459E+00
  2.70000000E-02  9.99999566E-01  4.79021923E-02 -1.12921896E-02  4.64645623E+00  7.87048406E-01 -7.90955589E-01  1.02932327E+00  8.15312362E-01  5.71178061E-01  9.97745887E+01  1.01038637E+00  1.03058596E+00
  2.80000000E-02  9.99999478E-01  4.96171566E-02 -1.16884495E-02  4.64639960E+00  7.86886354E-01 -7.90952727E-01  1.03109263E+00  8.33158782E-01  5.83035158E-01  9.81506936E+01  1.01139775E+00  1.03245842E+00
  2.90000000E-02  9.99999388E-01  5.13305687E-02 -1.20836449E-02  4.64634307E+00  7.86725146E-01 -7.90949724E-01  1.03288714E+00  8.50988251E-01  5.94845105E-01  9.66181804E+01  1.01243873E+00  1.03437622E+00
  3.00000000E-02  9.99999301E-01  5.30471000E-02 -1.24799500E-02  4.64636060E+00  7.86626334E-01 -7.90942752E-01  1.03466382E+00  8.67423895E-01  6.06319038E-01  9.51162352E+01  1.01362896E+00  1.03624381E+00
  3.10000000E-02  9.99999248E-01  5.47594113E-02 -1.28742952E-02  4.64638157E+00  7.86527950E-01 -7.90935937E-01  1.03646495E+00  8.84166453E-01  6.17147843E-01  9.36707620E+01  1.01485321E+00  1.03816198E+00
  3.20000000E-02  9.99999236E-01  5.64709301E-02 -1.32717354E-02  4.64644564E+00  7.86494444E-01 -7.90932427E-01  1.03822198E+00  8.99548754E-01  6.27137067E-01  9.22423274E+01  1.01610845E+00  1.04003017E+00
  3.30000000E-02  9.99999269E-01  5.81796367E-02 -1.36657939E-02  4.64651173E+00  7.86462701E-01 -7.90928752E-01  1.04001685E+00  9.14893856E-01  6.36521997E-01  9.08274193E+01  1.01736424E+00  1.04194040E+00
  3.40000000E-02  9.99999342E-01  5.98863463E-02 -1.40583402E-02  4.64657841E+00  7.86432615E-01 -7.90924928E-01  1.04178987E+00  9.29467921E-01  6.45471259E-01  8.94513362E+01  1.01861748E+00  1.04380686E+00
  3.50000000E-02  9.99999451E-01  6.15913042E-02 -1.44497793E-02  4.64664525E+00  7.86403810E-01 -7.90920918E-01  1.04355817E+00  9.42929228E-01  6.54173544E-01  8.80792449E+01  1.01986832E+00  1.04566070E+00
  3.60000000E-02  9.99999592E-01  6.32947482E-02 -1.48404349E-02  4.64671221E+00  7.86376002E-01 -7.90916777E-01  1.04534556E+00  9.56557180E-01  6.62605327E-01  8.67664771E+01  1.02111116E+00  1.04752028E+00
  3.70000000E-02  9.99999761E-01  6.49964268E-02 -1.52302673E-02  4.64677956E+00  7.86348983E-01 -7.90912466E-01  1.04707553E+00  9.68447121E-01  6.70561651E-01  8.54622115E+01  1.02233243E+00  1.04930300E+00
  3.80000000E-02  9.99999957E-01  6.66965271E-02 -1.56195267E-02  4.64684680E+00  7.86322594E-01 -7.90908002E-01  1.04883333E+00  9.80490570E-01  6.77989623E-01  8.41875438E+01  1.02353384E+00  1.05112054E+00
  3.90000000E-02  1.00000018E+00  6.83948299E-02 -1.60081320E-02  4.64691442E+00  7.86296716E-01 -7.90903412E-01  1.05054806E+00  9.91366487E-01  6.84737903E-01  8.29365998E+01  1.02470837E+00  1.05286320E+00
  4.00000000E-02  1.00000042E+00  7.00916288E-02 -1.63962118E-02  4.64695306E+00  7.86282785E-01 -7.90898626E-01  1.05224792E+00  1.00125003E+00  6.91002319E-01  8.16882475E+01  1.02591377E+00  1.05449458E+00
  4.10000000E-02  1.00000068E+00  7.17875842E-02 -1.67842364E-02  4.64698722E+00  7.86269268E-01 -7.90893728E-01  1.05394647E+00  1.01081167E+00  6.96827108E-01  8.04749228E+01  1.02708965E+00  1.05608701E+00
  4.20000000E-02  1.00000096E+00  7.34826759E-02 -1.71721307E-02  4.64702016E+00  7.86256069E-01 -7.90888657E-01  1.05559470E+00  1.01892660E+00  7.02325765E-01  7.92736959E+01  1.02824057E+00  1.05761991E+00
  4.30000000E-02  1.00000126E+00  7.51770655E-02 -1.75600550E-02  4.64705241E+00  7.86243117E-01 -7.90883436E-01  1.05723032E+00  1.02652596E+00  7.07496262E-01  7.81061615E+01  1.02936819E+00  1.05914894E+00
  4.40000000E-02  1.00000157E+00  7.68705422E-02 -1.79478619E-02  4.64708422E+00  7.86230364E-01 -7.90878113E-01  1.05882833E+00  1.03328446E+00  7.12207781E-01  7.69694175E+01  1.03046199E+00  1.06062060E+00
  4.50000000E-02  1.00000190E+00  7.85631354E-02 -1.83356637E-02  4.64711618E+00  7.86217772E-01 -7.90872606E-01  1.06038738E+00  1.03913819E+00  7.16440972E-01  7.58530898E+01  1.03152577E+00  1.06207633E+00
  4.60000000E-02  1.00000225E+00  8.02548133E-02 -1.87234139E-02  4.64714783E+00  7.86205315E-01 -7.90867005E-01  1.06194154E+00  1.04456348E+00  7.20149878E-01  7.47561051E+01  1.03255768E+00  1.06349487E+00
  4.70000000E-02  1.00000261E+00  8.19456842E-02 -1.91111068E-02  4.64717979E+00  7.86192973E-01 -7.90861248E-01  1.06346853E+00  1.04928672E+00  7.23533647E-01  7.36864888E+01  1.03357050E+00  1.06487629E+00
  4.80000000E-02  1.00000299E+00  8.36358102E-02 -1.94987965E-02  4.64721155E+00  7.86180728E-01 -7.90855345E-01  1.06496339E+00  1.05311399E+00  7.26641581E-01  7.26347773E+01  1.03456948E+00  1.06622239E+00
  4.90000000E-02  1.00000339E+00  8.53253110E-02 -1.98864279E-02  4.64724343E+00  7.86168568E-01 -7.90849332E-01  1.06646027E+00  1.05670122E+00  7.29586001E-01  7.16165991E+01  1.03555860E+00  1.06754294E+00
  5.00000000E-02  1.00000380E+00  8.70141859E-02 -2.02740556E-02  4.64727521E+00  7.86156484E-01 -7.90843169E-01  1.06791514E+00  1.05958937E+00  7.32268796E-01  7.06297452E+01  1.03653030E+00  1.06883190E+00
